
Integration time [ms]: 1000.000
Averaging Nr. [scans]: 1
Smoothing Nr. [pixels]: 0
Data measured with spectrometer [name]: 1701237U1
Wave   ;Sample   ;Dark     ;Reference;Scope Corrected for Dark
[nm]   ;[counts] ;[counts] ;[counts] ;[counts] 

 173.88;  -37.000;  -33.000;    0.000;-4.00000
 174.48;  -95.000;  -46.000;    0.000;-49.00000
 175.09;  -45.000;  -17.000;    0.000;-28.00000
 175.69;   33.000;    9.000;    0.000;24.00000
 176.30;   52.000;   12.000;    0.000;40.00000
 176.90;  -24.000;  -29.000;    0.000; 5.00000
 177.51;  -13.000;   -4.000;    0.000;-9.00000
 178.11;   -4.000;   27.000;    0.000;-31.00000
 178.72;  -49.000;  -75.000;    0.000;26.00000
 179.32; -112.000;  -41.000;    0.000;-71.00000
 179.93;   58.000;  -16.000;    0.000;74.00000
 180.54;  -36.000;  -23.000;    0.000;-13.00000
 181.14;    6.000;   46.000;    0.000;-40.00000
 181.75;   46.000;   34.000;    0.000;12.00000
 182.35;  -38.000;  -62.000;    0.000;24.00000
 182.96;  -37.000;   69.000;    0.000;-106.00000
 183.56;    2.000;  -51.000;    0.000;53.00000
 184.17;  145.000;   90.000;    0.000;55.00000
 184.77;  -35.000;  -12.000;    0.000;-23.00000
 185.38;   -7.000;   -8.000;    0.000; 1.00000
 185.98;   84.000;  -19.000;    0.000;103.00000
 186.59;    1.000;   28.000;    0.000;-27.00000
 187.19;   -3.000;  -46.000;    0.000;43.00000
 187.80;   55.000;    3.000;    0.000;52.00000
 188.40;   19.000;  -37.000;    0.000;56.00000
 189.01;  -66.000;  -12.000;    0.000;-54.00000
 189.61;  -55.000;  -25.000;    0.000;-30.00000
 190.21;  -85.000;  -74.000;    0.000;-11.00000
 190.82;  -42.000;  -22.000;    0.000;-20.00000
 191.42;   24.000;  -25.000;    0.000;49.00000
 192.03;  -13.000;   25.000;    0.000;-38.00000
 192.63;  -41.000;  -45.000;    0.000; 4.00000
 193.24;   38.000;   16.000;    0.000;22.00000
 193.84;  -53.000;  -50.000;    0.000;-3.00000
 194.45;   14.000;  -26.000;    0.000;40.00000
 195.05;  -20.000;  -30.000;    0.000;10.00000
 195.66;  -50.000;   -8.000;    0.000;-42.00000
 196.26;    1.000;   23.000;    0.000;-22.00000
 196.87;   40.000;   18.000;    0.000;22.00000
 197.47;   -5.000;  -52.000;    0.000;47.00000
 198.07;  -62.000; -122.000;    0.000;60.00000
 198.68;  -89.000;  -37.000;    0.000;-52.00000
 199.28;   13.000;  -42.000;    0.000;55.00000
 199.89;   12.000;    4.000;    0.000; 8.00000
 200.49;   12.000;    7.000;    0.000; 5.00000
 201.10;   39.000;   16.000;    0.000;23.00000
 201.70;   -2.000;   46.000;    0.000;-48.00000
 202.31;  -53.000;  -50.000;    0.000;-3.00000
 202.91;   58.000;   31.000;    0.000;27.00000
 203.51;  -12.000;   -5.000;    0.000;-7.00000
 204.12;  -52.000;   15.000;    0.000;-67.00000
 204.72;  -11.000;   34.000;    0.000;-45.00000
 205.33;   -4.000;  -26.000;    0.000;22.00000
 205.93;  -15.000;  -11.000;    0.000;-4.00000
 206.53;  -18.000; -100.000;    0.000;82.00000
 207.14;  -64.000;  -51.000;    0.000;-13.00000
 207.74;    5.000;  -34.000;    0.000;39.00000
 208.35;  -18.000;  -78.000;    0.000;60.00000
 208.95;  -27.000;    3.000;    0.000;-30.00000
 209.55;  211.000;  177.000;    0.000;34.00000
 210.16;  -44.000;  -79.000;    0.000;35.00000
 210.76;  -11.000;   28.000;    0.000;-39.00000
 211.37;  -53.000;  -54.000;    0.000; 1.00000
 211.97;    3.000;  -15.000;    0.000;18.00000
 212.57;  -22.000;  -33.000;    0.000;11.00000
 213.18;  -26.000;  -66.000;    0.000;40.00000
 213.78;  -29.000;  -21.000;    0.000;-8.00000
 214.38;  130.000;  102.000;    0.000;28.00000
 214.99;    6.000;   -9.000;    0.000;15.00000
 215.59;  -53.000;  -53.000;    0.000; 0.00000
 216.20;  -19.000;  -78.000;    0.000;59.00000
 216.80;  -98.000;  -39.000;    0.000;-59.00000
 217.40;  -13.000;    0.000;    0.000;-13.00000
 218.01;  -17.000;  -13.000;    0.000;-4.00000
 218.61;  -44.000;  -50.000;    0.000; 6.00000
 219.21;  -23.000;  -44.000;    0.000;21.00000
 219.82;  139.000;   59.000;    0.000;80.00000
 220.42;  -68.000;  -77.000;    0.000; 9.00000
 221.02;  -20.000;  -40.000;    0.000;20.00000
 221.63;  -60.000;  -46.000;    0.000;-14.00000
 222.23;  -71.000;  -91.000;    0.000;20.00000
 222.83;  -94.000;  -45.000;    0.000;-49.00000
 223.44;  -54.000;  -82.000;    0.000;28.00000
 224.04;  -44.000;  -39.000;    0.000;-5.00000
 224.64;  -52.000;  -60.000;    0.000; 8.00000
 225.25;  -33.000;   14.000;    0.000;-47.00000
 225.85;  -29.000;  -50.000;    0.000;21.00000
 226.45;  -59.000;  -12.000;    0.000;-47.00000
 227.06;  116.000;   77.000;    0.000;39.00000
 227.66;   84.000;   79.000;    0.000; 5.00000
 228.26;   20.000;  -12.000;    0.000;32.00000
 228.87;  -20.000;  -34.000;    0.000;14.00000
 229.47;   47.000;   37.000;    0.000;10.00000
 230.07;  -40.000;  -24.000;    0.000;-16.00000
 230.68;   68.000;   88.000;    0.000;-20.00000
 231.28;   -6.000;   -7.000;    0.000; 1.00000
 231.88;  198.000;  108.000;    0.000;90.00000
 232.48;  -42.000;    8.000;    0.000;-50.00000
 233.09;  -56.000;    7.000;    0.000;-63.00000
 233.69;   -8.000;  -79.000;    0.000;71.00000
 234.29;   45.000;   37.000;    0.000; 8.00000
 234.90;    3.000;   35.000;    0.000;-32.00000
 235.50;  -43.000;  -67.000;    0.000;24.00000
 236.10;  -18.000;  -81.000;    0.000;63.00000
 236.70;  -54.000;   21.000;    0.000;-75.00000
 237.31;  -35.000;  -38.000;    0.000; 3.00000
 237.91;  -54.000;    4.000;    0.000;-58.00000
 238.51;  -63.000;  -64.000;    0.000; 1.00000
 239.11;    7.000;  -52.000;    0.000;59.00000
 239.72;  -71.000;  -64.000;    0.000;-7.00000
 240.32;  -93.000;  -82.000;    0.000;-11.00000
 240.92;   83.000;   25.000;    0.000;58.00000
 241.53;   25.000;   21.000;    0.000; 4.00000
 242.13;  -48.000;   29.000;    0.000;-77.00000
 242.73;  -17.000;   13.000;    0.000;-30.00000
 243.33;  -16.000;  -48.000;    0.000;32.00000
 243.93;  -40.000;  -41.000;    0.000; 1.00000
 244.54;  -67.000;  -46.000;    0.000;-21.00000
 245.14;   -2.000;  -35.000;    0.000;33.00000
 245.74;   22.000;   44.000;    0.000;-22.00000
 246.34;  -50.000;  -11.000;    0.000;-39.00000
 246.95;  -78.000;  -79.000;    0.000; 1.00000
 247.55;  -69.000;  -76.000;    0.000; 7.00000
 248.15;  -61.000;  -58.000;    0.000;-3.00000
 248.75;   57.000;   11.000;    0.000;46.00000
 249.36;  -93.000;  -60.000;    0.000;-33.00000
 249.96;  -75.000;  -23.000;    0.000;-52.00000
 250.56;   36.000;  -15.000;    0.000;51.00000
 251.16;   20.000;  -40.000;    0.000;60.00000
 251.76;  -33.000;    3.000;    0.000;-36.00000
 252.37;    6.000;   35.000;    0.000;-29.00000
 252.97;  -49.000;  -12.000;    0.000;-37.00000
 253.57; -118.000;  -13.000;    0.000;-105.00000
 254.17;  -28.000;   45.000;    0.000;-73.00000
 254.77;    0.000;    0.000;    0.000; 0.00000
 255.38; -121.000;  -69.000;    0.000;-52.00000
 255.98; -108.000;   -9.000;    0.000;-99.00000
 256.58;    5.000;   43.000;    0.000;-38.00000
 257.18;  -84.000;  -27.000;    0.000;-57.00000
 257.78;   -6.000;  -35.000;    0.000;29.00000
 258.38;  -42.000;  -24.000;    0.000;-18.00000
 258.99;  -34.000;  -47.000;    0.000;13.00000
 259.59;  -81.000;  -18.000;    0.000;-63.00000
 260.19;  -28.000;  -38.000;    0.000;10.00000
 260.79;    5.000;   37.000;    0.000;-32.00000
 261.39;  109.000;  113.000;    0.000;-4.00000
 261.99;  -73.000;  -51.000;    0.000;-22.00000
 262.60;  -40.000;  -68.000;    0.000;28.00000
 263.20;  -58.000; -102.000;    0.000;44.00000
 263.80;  -79.000;  -56.000;    0.000;-23.00000
 264.40; -101.000;  -95.000;    0.000;-6.00000
 265.00;  -10.000;   16.000;    0.000;-26.00000
 265.60;   18.000;  -19.000;    0.000;37.00000
 266.20;  -33.000;   12.000;    0.000;-45.00000
 266.81;  -31.000;  -17.000;    0.000;-14.00000
 267.41;  -62.000;   -8.000;    0.000;-54.00000
 268.01;   95.000;   69.000;    0.000;26.00000
 268.61;  -71.000;  -82.000;    0.000;11.00000
 269.21;  -40.000;  -87.000;    0.000;47.00000
 269.81;  -27.000;   -9.000;    0.000;-18.00000
 270.41;  -25.000;   13.000;    0.000;-38.00000
 271.01;  -22.000;  -36.000;    0.000;14.00000
 271.62;  -21.000;  -24.000;    0.000; 3.00000
 272.22;  -26.000;  -78.000;    0.000;52.00000
 272.82;   21.000;   12.000;    0.000; 9.00000
 273.42;   22.000;   18.000;    0.000; 4.00000
 274.02;  -25.000;  -53.000;    0.000;28.00000
 274.62;    6.000;  -69.000;    0.000;75.00000
 275.22;  -13.000;  -62.000;    0.000;49.00000
 275.82;  -23.000;  -49.000;    0.000;26.00000
 276.42;   -1.000;  -64.000;    0.000;63.00000
 277.02;  -34.000; -101.000;    0.000;67.00000
 277.63;   19.000;   52.000;    0.000;-33.00000
 278.23;  -28.000;  -42.000;    0.000;14.00000
 278.83;   51.000;    8.000;    0.000;43.00000
 279.43;   48.000;   63.000;    0.000;-15.00000
 280.03;   -1.000;  -18.000;    0.000;17.00000
 280.63;  -28.000;  -65.000;    0.000;37.00000
 281.23;   20.000;   52.000;    0.000;-32.00000
 281.83; -100.000;  -33.000;    0.000;-67.00000
 282.43; 2366.000; 2084.000;    0.000;282.00000
 283.03;   66.000;   68.000;    0.000;-2.00000
 283.63; -106.000;  -34.000;    0.000;-72.00000
 284.23;   -6.000;  -37.000;    0.000;31.00000
 284.83;  -22.000;   -4.000;    0.000;-18.00000
 285.43;   -3.000;    1.000;    0.000;-4.00000
 286.03;  -61.000;  -55.000;    0.000;-6.00000
 286.63;  -11.000;  -42.000;    0.000;31.00000
 287.23;  -55.000;  -76.000;    0.000;21.00000
 287.84;  -53.000;  -33.000;    0.000;-20.00000
 288.44;    1.000;  -43.000;    0.000;44.00000
 289.04;  -86.000;  -58.000;    0.000;-28.00000
 289.64;  -71.000;  -20.000;    0.000;-51.00000
 290.24;  -35.000;   -7.000;    0.000;-28.00000
 290.84;  -82.000;  -64.000;    0.000;-18.00000
 291.44;   -9.000;   26.000;    0.000;-35.00000
 292.04;  -27.000;    0.000;    0.000;-27.00000
 292.64;   -9.000;  -17.000;    0.000; 8.00000
 293.24;  -17.000;   17.000;    0.000;-34.00000
 293.84;  -57.000; -109.000;    0.000;52.00000
 294.44;   40.000;  -20.000;    0.000;60.00000
 295.04;  -49.000;  -59.000;    0.000;10.00000
 295.64;  -26.000;  -60.000;    0.000;34.00000
 296.24;  -46.000;  -40.000;    0.000;-6.00000
 296.84;   22.000;  -14.000;    0.000;36.00000
 297.44;  -36.000;  -85.000;    0.000;49.00000
 298.04;  -64.000;  -43.000;    0.000;-21.00000
 298.64;  -57.000;  -65.000;    0.000; 8.00000
 299.24;   -3.000;  -15.000;    0.000;12.00000
 299.84;   -5.000;   10.000;    0.000;-15.00000
 300.44;   20.000;  -38.000;    0.000;58.00000
 301.04;  -72.000;  -16.000;    0.000;-56.00000
 301.64;  -28.000;  -26.000;    0.000;-2.00000
 302.24;  -65.000;  -62.000;    0.000;-3.00000
 302.83;  -42.000;  -40.000;    0.000;-2.00000
 303.43;  -36.000;  -30.000;    0.000;-6.00000
 304.03;  -84.000;  -97.000;    0.000;13.00000
 304.63;  -66.000;  -10.000;    0.000;-56.00000
 305.23;  -28.000;  -22.000;    0.000;-6.00000
 305.83;  -83.000; -109.000;    0.000;26.00000
 306.43;    0.000;  -82.000;    0.000;82.00000
 307.03;   34.000;    7.000;    0.000;27.00000
 307.63;   31.000;   12.000;    0.000;19.00000
 308.23;  -36.000;   62.000;    0.000;-98.00000
 308.83;  -35.000;  -12.000;    0.000;-23.00000
 309.43;  -62.000;   -8.000;    0.000;-54.00000
 310.03;  -23.000;  -64.000;    0.000;41.00000
 310.63;   26.000;  -45.000;    0.000;71.00000
 311.23;  -10.000;    8.000;    0.000;-18.00000
 311.83;  -11.000;  -15.000;    0.000; 4.00000
 312.43;  -23.000;   13.000;    0.000;-36.00000
 313.02;   -1.000;    5.000;    0.000;-6.00000
 313.62;  -37.000;  -58.000;    0.000;21.00000
 314.22;  -39.000;  -13.000;    0.000;-26.00000
 314.82;   43.000;   61.000;    0.000;-18.00000
 315.42;   43.000;   36.000;    0.000; 7.00000
 316.02;  -26.000;   -7.000;    0.000;-19.00000
 316.62;  -44.000;  -24.000;    0.000;-20.00000
 317.22;  -13.000;  -92.000;    0.000;79.00000
 317.82;  -44.000;  -50.000;    0.000; 6.00000
 318.42;  228.000;  249.000;    0.000;-21.00000
 319.01;  -47.000;  -62.000;    0.000;15.00000
 319.61;  -42.000;    1.000;    0.000;-43.00000
 320.21;  -74.000;  -35.000;    0.000;-39.00000
 320.81;  -54.000;  -28.000;    0.000;-26.00000
 321.41;   16.000;   44.000;    0.000;-28.00000
 322.01;  -97.000;  -88.000;    0.000;-9.00000
 322.61;    5.000;  -28.000;    0.000;33.00000
 323.21;  -91.000;  -89.000;    0.000;-2.00000
 323.80;  -65.000;  -97.000;    0.000;32.00000
 324.40;  -36.000;  -59.000;    0.000;23.00000
 325.00;  -88.000; -107.000;    0.000;19.00000
 325.60;   27.000;  -35.000;    0.000;62.00000
 326.20;   -3.000;  -35.000;    0.000;32.00000
 326.80;   30.000; -100.000;    0.000;130.00000
 327.40;   -8.000;  -32.000;    0.000;24.00000
 327.99;   28.000;  -29.000;    0.000;57.00000
 328.59;  -12.000;  -38.000;    0.000;26.00000
 329.19;  319.000;  305.000;    0.000;14.00000
 329.79;  -53.000;   19.000;    0.000;-72.00000
 330.39;  172.000;   73.000;    0.000;99.00000
 330.99;  -26.000;    5.000;    0.000;-31.00000
 331.58;  -32.000;  -52.000;    0.000;20.00000
 332.18;  -54.000;  -58.000;    0.000; 4.00000
 332.78;   62.000;   34.000;    0.000;28.00000
 333.38;   38.000;   66.000;    0.000;-28.00000
 333.98;  -53.000;  -73.000;    0.000;20.00000
 334.57;  -18.000;   -5.000;    0.000;-13.00000
 335.17;  -51.000;  -62.000;    0.000;11.00000
 335.77;   11.000;   28.000;    0.000;-17.00000
 336.37;  149.000;  122.000;    0.000;27.00000
 336.97;  -52.000;  -45.000;    0.000;-7.00000
 337.56;  -27.000;  -84.000;    0.000;57.00000
 338.16;   37.000;  -12.000;    0.000;49.00000
 338.76;   44.000;   17.000;    0.000;27.00000
 339.36;  -59.000;  -66.000;    0.000; 7.00000
 339.96;   38.000;   26.000;    0.000;12.00000
 340.55;   31.000;   11.000;    0.000;20.00000
 341.15;  -47.000;  -31.000;    0.000;-16.00000
 341.75;   74.000;   58.000;    0.000;16.00000
 342.35;  -21.000;  -92.000;    0.000;71.00000
 342.94;  -33.000;   74.000;    0.000;-107.00000
 343.54;  -80.000;    6.000;    0.000;-86.00000
 344.14;  -43.000;  -74.000;    0.000;31.00000
 344.74;  -17.000;   -4.000;    0.000;-13.00000
 345.33;   10.000;   25.000;    0.000;-15.00000
 345.93;   52.000;   -4.000;    0.000;56.00000
 346.53;  -54.000;  -50.000;    0.000;-4.00000
 347.13;   -3.000;  -44.000;    0.000;41.00000
 347.72;  -64.000;  -39.000;    0.000;-25.00000
 348.32;  -25.000;  -35.000;    0.000;10.00000
 348.92;    0.000;   17.000;    0.000;-17.00000
 349.52; -101.000;  -58.000;    0.000;-43.00000
 350.11;   21.000;   81.000;    0.000;-60.00000
 350.71;  -22.000;  -35.000;    0.000;13.00000
 351.31;    4.000;  -22.000;    0.000;26.00000
 351.91;  -52.000;  -95.000;    0.000;43.00000
 352.50;   -8.000;  -34.000;    0.000;26.00000
 353.10;   -5.000;   -9.000;    0.000; 4.00000
 353.70;   55.000;  -52.000;    0.000;107.00000
 354.29;  364.000;  362.000;    0.000; 2.00000
 354.89;  -20.000;  -56.000;    0.000;36.00000
 355.49;  -12.000;  -92.000;    0.000;80.00000
 356.09;  -10.000;   13.000;    0.000;-23.00000
 356.68;   -2.000;  -59.000;    0.000;57.00000
 357.28; -102.000;  -46.000;    0.000;-56.00000
 357.88;   60.000;  -53.000;    0.000;113.00000
 358.47;  -98.000;  -81.000;    0.000;-17.00000
 359.07;   13.000;   51.000;    0.000;-38.00000
 359.67;  -83.000;  -42.000;    0.000;-41.00000
 360.26;    3.000;  -26.000;    0.000;29.00000
 360.86;  -24.000;   -7.000;    0.000;-17.00000
 361.46;  -15.000;    6.000;    0.000;-21.00000
 362.05;   -7.000;    1.000;    0.000;-8.00000
 362.65;  -33.000;  -40.000;    0.000; 7.00000
 363.25; -102.000;  -50.000;    0.000;-52.00000
 363.84;  -42.000;   -1.000;    0.000;-41.00000
 364.44;  -57.000;    0.000;    0.000;-57.00000
 365.04;  -15.000;  -21.000;    0.000; 6.00000
 365.63;  -90.000;  -71.000;    0.000;-19.00000
 366.23;  -13.000;  -16.000;    0.000; 3.00000
 366.83;  -13.000;  -53.000;    0.000;40.00000
 367.42;   12.000;  -95.000;    0.000;107.00000
 368.02;  -33.000; -107.000;    0.000;74.00000
 368.62;    7.000;   33.000;    0.000;-26.00000
 369.21;  -34.000;    3.000;    0.000;-37.00000
 369.81;  234.000;  192.000;    0.000;42.00000
 370.41;  -50.000;  -42.000;    0.000;-8.00000
 371.00;  -62.000;  -23.000;    0.000;-39.00000
 371.60;  -88.000;  -24.000;    0.000;-64.00000
 372.19;  -65.000;  -20.000;    0.000;-45.00000
 372.79;  -55.000;  -29.000;    0.000;-26.00000
 373.39;   -7.000;    2.000;    0.000;-9.00000
 373.98;  -55.000;  -16.000;    0.000;-39.00000
 374.58;  -72.000;   37.000;    0.000;-109.00000
 375.17;   -2.000;  -37.000;    0.000;35.00000
 375.77;   27.000;   34.000;    0.000;-7.00000
 376.37;  -41.000;  -56.000;    0.000;15.00000
 376.96;   31.000;   -3.000;    0.000;34.00000
 377.56;    4.000;   -8.000;    0.000;12.00000
 378.15;  -17.000;  -24.000;    0.000; 7.00000
 378.75;   -8.000;  -24.000;    0.000;16.00000
 379.35;  -76.000;  -23.000;    0.000;-53.00000
 379.94;   14.000;  -18.000;    0.000;32.00000
 380.54;  -38.000;  -33.000;    0.000;-5.00000
 381.13;  -24.000;  -35.000;    0.000;11.00000
 381.73;    8.000;  -63.000;    0.000;71.00000
 382.32;  -34.000;  -68.000;    0.000;34.00000
 382.92;  -79.000;  -78.000;    0.000;-1.00000
 383.52;  -71.000;  -47.000;    0.000;-24.00000
 384.11;  -92.000;   -3.000;    0.000;-89.00000
 384.71;  -30.000;    4.000;    0.000;-34.00000
 385.30;   53.000;  -25.000;    0.000;78.00000
 385.90;   -9.000;   20.000;    0.000;-29.00000
 386.49;  -43.000;  -25.000;    0.000;-18.00000
 387.09;   82.000;   48.000;    0.000;34.00000
 387.68;  -39.000;   13.000;    0.000;-52.00000
 388.28;  -85.000; -103.000;    0.000;18.00000
 388.87;  234.000;  171.000;    0.000;63.00000
 389.47;    7.000;  -41.000;    0.000;48.00000
 390.07;   -3.000;  -11.000;    0.000; 8.00000
 390.66;  -53.000;  -38.000;    0.000;-15.00000
 391.26;  -32.000;  -43.000;    0.000;11.00000
 391.85;  -81.000;  -41.000;    0.000;-40.00000
 392.45;  -12.000;  -16.000;    0.000; 4.00000
 393.04;  -51.000;   -6.000;    0.000;-45.00000
 393.64;  -70.000;  -90.000;    0.000;20.00000
 394.23;  -16.000;   -6.000;    0.000;-10.00000
 394.83;  -90.000;  -38.000;    0.000;-52.00000
 395.42;  -16.000;    9.000;    0.000;-25.00000
 396.02;  -31.000;    4.000;    0.000;-35.00000
 396.61;  -99.000;  -70.000;    0.000;-29.00000
 397.21;  -10.000;   12.000;    0.000;-22.00000
 397.80;11643.000;10838.000;    0.000;805.00000
 398.40;   48.000;   49.000;    0.000;-1.00000
 398.99;  -29.000;  -25.000;    0.000;-4.00000
 399.59;    3.000;    6.000;    0.000;-3.00000
 400.18;  -97.000;  -27.000;    0.000;-70.00000
 400.78;  -46.000;  -36.000;    0.000;-10.00000
 401.37;    6.000;  -24.000;    0.000;30.00000
 401.96;  -96.000;  -38.000;    0.000;-58.00000
 402.56;  -62.000;  -72.000;    0.000;10.00000
 403.15;  -66.000;  -21.000;    0.000;-45.00000
 403.75;  -43.000;   51.000;    0.000;-94.00000
 404.34;  -45.000;   -3.000;    0.000;-42.00000
 404.94;  -62.000;  -60.000;    0.000;-2.00000
 405.53;  -33.000; -133.000;    0.000;100.00000
 406.13;    1.000;  -27.000;    0.000;28.00000
 406.72;  -63.000;  -42.000;    0.000;-21.00000
 407.32;  -64.000;  -46.000;    0.000;-18.00000
 407.91;   19.000;  -31.000;    0.000;50.00000
 408.50;  -58.000;  -49.000;    0.000;-9.00000
 409.10;  -31.000;  -61.000;    0.000;30.00000
 409.69;  -29.000;   36.000;    0.000;-65.00000
 410.29;  -22.000;  -50.000;    0.000;28.00000
 410.88;  -62.000;  -26.000;    0.000;-36.00000
 411.47;  -75.000;  -70.000;    0.000;-5.00000
 412.07;  -63.000;  -45.000;    0.000;-18.00000
 412.66;  -24.000;  -15.000;    0.000;-9.00000
 413.26;  -89.000;  -70.000;    0.000;-19.00000
 413.85;  -39.000;  -76.000;    0.000;37.00000
 414.45;  125.000;  114.000;    0.000;11.00000
 415.04;  -37.000;  -72.000;    0.000;35.00000
 415.63;   52.000;   24.000;    0.000;28.00000
 416.23;   20.000;  -50.000;    0.000;70.00000
 416.82;   61.000;  -35.000;    0.000;96.00000
 417.41;   73.000;   -4.000;    0.000;77.00000
 418.01;  -16.000;  -43.000;    0.000;27.00000
 418.60;   42.000; -105.000;    0.000;147.00000
 419.20;   38.000;    6.000;    0.000;32.00000
 419.79;   43.000;   -5.000;    0.000;48.00000
 420.38;   67.000;  -41.000;    0.000;108.00000
 420.98;  -10.000;  -81.000;    0.000;71.00000
 421.57;   -5.000;  -67.000;    0.000;62.00000
 422.16;   37.000;  -32.000;    0.000;69.00000
 422.76;   56.000;  -65.000;    0.000;121.00000
 423.35;  108.000;  -70.000;    0.000;178.00000
 423.94;  267.000;   79.000;    0.000;188.00000
 424.54;  214.000;   -5.000;    0.000;219.00000
 425.13;  275.000;   53.000;    0.000;222.00000
 425.73;  242.000;   14.000;    0.000;228.00000
 426.32;  218.000;  -36.000;    0.000;254.00000
 426.91;  352.000;   -4.000;    0.000;356.00000
 427.51;  369.000;  121.000;    0.000;248.00000
 428.10;  392.000;   51.000;    0.000;341.00000
 428.69;  293.000;  -28.000;    0.000;321.00000
 429.28;  353.000;  -59.000;    0.000;412.00000
 429.88;  406.000;  -39.000;    0.000;445.00000
 430.47;  533.000;   -3.000;    0.000;536.00000
 431.06;  660.000;   15.000;    0.000;645.00000
 431.66;  735.000;  -27.000;    0.000;762.00000
 432.25;  727.000;  -82.000;    0.000;809.00000
 432.84;  823.000;  -63.000;    0.000;886.00000
 433.44;  981.000;   -6.000;    0.000;987.00000
 434.03; 1016.000;  -76.000;    0.000;1092.00000
 434.62; 1284.000;   36.000;    0.000;1248.00000
 435.22; 1282.000;   40.000;    0.000;1242.00000
 435.81; 1386.000;   -6.000;    0.000;1392.00000
 436.40; 1571.000;  -40.000;    0.000;1611.00000
 436.99; 1674.000;  -61.000;    0.000;1735.00000
 437.59; 1826.000;  -33.000;    0.000;1859.00000
 438.18; 2019.000;   -5.000;    0.000;2024.00000
 438.77; 1949.000; -102.000;    0.000;2051.00000
 439.36; 2284.000;  -83.000;    0.000;2367.00000
 439.96; 2595.000;  118.000;    0.000;2477.00000
 440.55; 2755.000;  -89.000;    0.000;2844.00000
 441.14; 2966.000;    6.000;    0.000;2960.00000
 441.73; 3185.000;   80.000;    0.000;3105.00000
 442.33; 3388.000;   -9.000;    0.000;3397.00000
 442.92; 3678.000;   76.000;    0.000;3602.00000
 443.51; 3876.000;   16.000;    0.000;3860.00000
 444.10; 4293.000;   52.000;    0.000;4241.00000
 444.70; 4401.000;  -33.000;    0.000;4434.00000
 445.29; 4654.000;  -23.000;    0.000;4677.00000
 445.88; 5115.000;   -3.000;    0.000;5118.00000
 446.47; 5486.000;   41.000;    0.000;5445.00000
 447.07; 5947.000;  -17.000;    0.000;5964.00000
 447.66; 6139.000;   63.000;    0.000;6076.00000
 448.25; 6563.000;   11.000;    0.000;6552.00000
 448.84; 6686.000;   38.000;    0.000;6648.00000
 449.43; 7127.000;   -7.000;    0.000;7134.00000
 450.03; 7752.000;   71.000;    0.000;7681.00000
 450.62; 7888.000;  -20.000;    0.000;7908.00000
 451.21; 8328.000;   35.000;    0.000;8293.00000
 451.80; 8611.000;  118.000;    0.000;8493.00000
 452.39; 8614.000;  -20.000;    0.000;8634.00000
 452.99; 9080.000;    6.000;    0.000;9074.00000
 453.58; 9274.000;   13.000;    0.000;9261.00000
 454.17; 9218.000;   -8.000;    0.000;9226.00000
 454.76; 9330.000;   46.000;    0.000;9284.00000
 455.35; 9511.000;   79.000;    0.000;9432.00000
 455.95; 9172.000;  -38.000;    0.000;9210.00000
 456.54; 9321.000;  -59.000;    0.000;9380.00000
 457.13; 9233.000;    9.000;    0.000;9224.00000
 457.72; 8751.000;  -46.000;    0.000;8797.00000
 458.31; 8846.000;  -63.000;    0.000;8909.00000
 458.90; 8790.000;   84.000;    0.000;8706.00000
 459.50; 8199.000;  -32.000;    0.000;8231.00000
 460.09; 7977.000;  -27.000;    0.000;8004.00000
 460.68; 7564.000;  -60.000;    0.000;7624.00000
 461.27; 7241.000;  -31.000;    0.000;7272.00000
 461.86; 6893.000;  -21.000;    0.000;6914.00000
 462.45; 6676.000;  -15.000;    0.000;6691.00000
 463.04; 6139.000;  -58.000;    0.000;6197.00000
 463.64; 5858.000;   23.000;    0.000;5835.00000
 464.23; 5811.000;   12.000;    0.000;5799.00000
 464.82; 5439.000;   46.000;    0.000;5393.00000
 465.41; 5174.000;  -64.000;    0.000;5238.00000
 466.00; 4956.000;  -58.000;    0.000;5014.00000
 466.59; 4677.000;  -69.000;    0.000;4746.00000
 467.18; 4376.000;  -23.000;    0.000;4399.00000
 467.77; 3946.000;  -52.000;    0.000;3998.00000
 468.37; 3949.000;  -55.000;    0.000;4004.00000
 468.96; 3842.000;  -18.000;    0.000;3860.00000
 469.55; 3699.000;   10.000;    0.000;3689.00000
 470.14; 3374.000; -112.000;    0.000;3486.00000
 470.73; 3339.000;  -19.000;    0.000;3358.00000
 471.32; 3087.000;  -10.000;    0.000;3097.00000
 471.91; 3075.000;  -58.000;    0.000;3133.00000
 472.50; 2872.000;  -38.000;    0.000;2910.00000
 473.09; 2719.000;  -33.000;    0.000;2752.00000
 473.68; 2750.000;   48.000;    0.000;2702.00000
 474.27; 2514.000;  -48.000;    0.000;2562.00000
 474.86; 2352.000;  -32.000;    0.000;2384.00000
 475.46; 2176.000;  -48.000;    0.000;2224.00000
 476.05; 2174.000;   53.000;    0.000;2121.00000
 476.64; 1975.000;  -33.000;    0.000;2008.00000
 477.23; 1855.000;  -57.000;    0.000;1912.00000
 477.82; 1784.000;  -11.000;    0.000;1795.00000
 478.41; 1660.000;  -55.000;    0.000;1715.00000
 479.00; 1667.000;  -29.000;    0.000;1696.00000
 479.59; 1558.000;  -43.000;    0.000;1601.00000
 480.18; 1454.000;   20.000;    0.000;1434.00000
 480.77; 1326.000;  -90.000;    0.000;1416.00000
 481.36; 1336.000;  -27.000;    0.000;1363.00000
 481.95; 1150.000;  -15.000;    0.000;1165.00000
 482.54; 1145.000;  -65.000;    0.000;1210.00000
 483.13; 1099.000;  -49.000;    0.000;1148.00000
 483.72; 1029.000;  -90.000;    0.000;1119.00000
 484.31; 1040.000;  -68.000;    0.000;1108.00000
 484.90;  981.000;  -57.000;    0.000;1038.00000
 485.49;  879.000;  -55.000;    0.000;934.00000
 486.08;  860.000;  -68.000;    0.000;928.00000
 486.67;  881.000;   30.000;    0.000;851.00000
 487.26;  786.000;  -49.000;    0.000;835.00000
 487.85;  667.000;  -51.000;    0.000;718.00000
 488.44;  742.000;  -63.000;    0.000;805.00000
 489.03;  744.000;  -15.000;    0.000;759.00000
 489.62;  731.000;  -58.000;    0.000;789.00000
 490.21;  555.000; -101.000;    0.000;656.00000
 490.80;  622.000;   31.000;    0.000;591.00000
 491.39;  519.000;  -76.000;    0.000;595.00000
 491.98;  632.000;   43.000;    0.000;589.00000
 492.57;  546.000;   66.000;    0.000;480.00000
 493.16;  494.000;  -30.000;    0.000;524.00000
 493.75;  445.000;  -45.000;    0.000;490.00000
 494.34;  450.000;   11.000;    0.000;439.00000
 494.93;  388.000;  -35.000;    0.000;423.00000
 495.52;  355.000;  -56.000;    0.000;411.00000
 496.11;  275.000;  -64.000;    0.000;339.00000
 496.70;  339.000;  -16.000;    0.000;355.00000
 497.29;  301.000;  -15.000;    0.000;316.00000
 497.88;  358.000;   11.000;    0.000;347.00000
 498.47;  306.000;   47.000;    0.000;259.00000
 499.06;  320.000;   57.000;    0.000;263.00000
 499.64;  208.000;   -9.000;    0.000;217.00000
 500.23;  253.000;   33.000;    0.000;220.00000
 500.82;  215.000;  -15.000;    0.000;230.00000
 501.41;  263.000;   66.000;    0.000;197.00000
 502.00;  214.000;  -28.000;    0.000;242.00000
 502.59;  232.000;   24.000;    0.000;208.00000
 503.18;  165.000;  -20.000;    0.000;185.00000
 503.77;   86.000;   41.000;    0.000;45.00000
 504.36;  276.000;    2.000;    0.000;274.00000
 504.95;  111.000;  -17.000;    0.000;128.00000
 505.54;  144.000;   31.000;    0.000;113.00000
 506.12;  285.000;  195.000;    0.000;90.00000
 506.71;   33.000;   38.000;    0.000;-5.00000
 507.30;   96.000;  104.000;    0.000;-8.00000
 507.89;  106.000;   31.000;    0.000;75.00000
 508.48;   98.000;   76.000;    0.000;22.00000
 509.07;  185.000;   53.000;    0.000;132.00000
 509.66;  127.000;   94.000;    0.000;33.00000
 510.25;   30.000;   33.000;    0.000;-3.00000
 510.84;   73.000;   78.000;    0.000;-5.00000
 511.42;   13.000;   15.000;    0.000;-2.00000
 512.01;  225.000;  199.000;    0.000;26.00000
 512.60;   34.000;  102.000;    0.000;-68.00000
 513.19;   51.000;  133.000;    0.000;-82.00000
 513.78;   83.000;  122.000;    0.000;-39.00000
 514.37;   55.000;  162.000;    0.000;-107.00000
 514.95;   51.000;  123.000;    0.000;-72.00000
 515.54;   27.000;  118.000;    0.000;-91.00000
 516.13;   10.000;  102.000;    0.000;-92.00000
 516.72;   40.000;  180.000;    0.000;-140.00000
 517.31;   68.000;  170.000;    0.000;-102.00000
 517.90;   22.000;   74.000;    0.000;-52.00000
 518.48;  -46.000;  128.000;    0.000;-174.00000
 519.07;   73.000;  176.000;    0.000;-103.00000
 519.66;  118.000;  219.000;    0.000;-101.00000
 520.25;   24.000;  104.000;    0.000;-80.00000
 520.84;   39.000;  170.000;    0.000;-131.00000
 521.43;   47.000;  191.000;    0.000;-144.00000
 522.01;  169.000;  269.000;    0.000;-100.00000
 522.60;   57.000;  202.000;    0.000;-145.00000
 523.19;  -20.000;  165.000;    0.000;-185.00000
 523.78;    8.000;  220.000;    0.000;-212.00000
 524.37;   14.000;  153.000;    0.000;-139.00000
 524.95;   23.000;  181.000;    0.000;-158.00000
 525.54;   43.000;  152.000;    0.000;-109.00000
 526.13;  -10.000;  141.000;    0.000;-151.00000
 526.72;   34.000;  151.000;    0.000;-117.00000
 527.30;   33.000;  121.000;    0.000;-88.00000
 527.89;  -72.000;  108.000;    0.000;-180.00000
 528.48;   -8.000;  133.000;    0.000;-141.00000
 529.07;  -43.000;  124.000;    0.000;-167.00000
 529.65;   47.000;  240.000;    0.000;-193.00000
 530.24;   75.000;  140.000;    0.000;-65.00000
 530.83;  -44.000;   69.000;    0.000;-113.00000
 531.42;  -30.000;  184.000;    0.000;-214.00000
 532.00;   65.000;  159.000;    0.000;-94.00000
 532.59;    0.000;  153.000;    0.000;-153.00000
 533.18;   30.000;  113.000;    0.000;-83.00000
 533.77;  130.000;  206.000;    0.000;-76.00000
 534.35;   97.000;  155.000;    0.000;-58.00000
 534.94;  -11.000;   77.000;    0.000;-88.00000
 535.53;   38.000;  109.000;    0.000;-71.00000
 536.12;  -37.000;   68.000;    0.000;-105.00000
 536.70;  -23.000;   98.000;    0.000;-121.00000
 537.29;   23.000;   71.000;    0.000;-48.00000
 537.88;   -9.000;  103.000;    0.000;-112.00000
 538.46;  -77.000;   40.000;    0.000;-117.00000
 539.05;   -8.000;   43.000;    0.000;-51.00000
 539.64;  -59.000;   68.000;    0.000;-127.00000
 540.23;   42.000;  108.000;    0.000;-66.00000
 540.81;   70.000;  163.000;    0.000;-93.00000
 541.40;  -26.000;   45.000;    0.000;-71.00000
 541.99;  -56.000;   -1.000;    0.000;-55.00000
 542.57;  -61.000;   49.000;    0.000;-110.00000
 543.16;  -25.000;   39.000;    0.000;-64.00000
 543.75;    9.000;   56.000;    0.000;-47.00000
 544.33;   13.000;   44.000;    0.000;-31.00000
 544.92;   30.000;   90.000;    0.000;-60.00000
 545.51;   -8.000;   86.000;    0.000;-94.00000
 546.09;  -20.000;  104.000;    0.000;-124.00000
 546.68;   83.000;  103.000;    0.000;-20.00000
 547.27;  -31.000;   33.000;    0.000;-64.00000
 547.85;  -29.000;   42.000;    0.000;-71.00000
 548.44;  -40.000;  -18.000;    0.000;-22.00000
 549.03;  -10.000;   41.000;    0.000;-51.00000
 549.61;  -36.000;    8.000;    0.000;-44.00000
 550.20;   -7.000;   40.000;    0.000;-47.00000
 550.78;   52.000;   70.000;    0.000;-18.00000
 551.37;    2.000;   74.000;    0.000;-72.00000
 551.96;  -45.000;   59.000;    0.000;-104.00000
 552.54; -118.000;   13.000;    0.000;-131.00000
 553.13;  -35.000;  -15.000;    0.000;-20.00000
 553.72;  -22.000;   -2.000;    0.000;-20.00000
 554.30;   43.000;   56.000;    0.000;-13.00000
 554.89;   10.000;  -13.000;    0.000;23.00000
 555.47;   29.000;   17.000;    0.000;12.00000
 556.06;  -51.000;   76.000;    0.000;-127.00000
 556.65;  -27.000;   68.000;    0.000;-95.00000
 557.23;   18.000;   47.000;    0.000;-29.00000
 557.82;  -43.000;   10.000;    0.000;-53.00000
 558.40;  -31.000;  -50.000;    0.000;19.00000
 558.99;  -19.000;    5.000;    0.000;-24.00000
 559.58;  -71.000;   61.000;    0.000;-132.00000
 560.16;  -59.000;  -38.000;    0.000;-21.00000
 560.75;  -69.000;   34.000;    0.000;-103.00000
 561.33;   71.000;   86.000;    0.000;-15.00000
 561.92;  -13.000;    2.000;    0.000;-15.00000
 562.50;   43.000;   27.000;    0.000;16.00000
 563.09;  -19.000;  -14.000;    0.000;-5.00000
 563.68;   -2.000;   -4.000;    0.000; 2.00000
 564.26;  -46.000;   14.000;    0.000;-60.00000
 564.85;   38.000;   10.000;    0.000;28.00000
 565.43;    6.000;   -1.000;    0.000; 7.00000
 566.02;    7.000;   -6.000;    0.000;13.00000
 566.60;  -39.000;  -17.000;    0.000;-22.00000
 567.19;  -59.000;  -22.000;    0.000;-37.00000
 567.77;  -53.000;   -8.000;    0.000;-45.00000
 568.36;   23.000;   18.000;    0.000; 5.00000
 568.94;  -98.000;  -28.000;    0.000;-70.00000
 569.53;   31.000;   12.000;    0.000;19.00000
 570.11;   -5.000;   -8.000;    0.000; 3.00000
 570.70;  -80.000;  -41.000;    0.000;-39.00000
 571.28;    4.000;  -30.000;    0.000;34.00000
 571.87;  -61.000;  -55.000;    0.000;-6.00000
 572.45;   -8.000;   23.000;    0.000;-31.00000
 573.04;  -60.000;  -31.000;    0.000;-29.00000
 573.62;  -86.000;  -35.000;    0.000;-51.00000
 574.21;   78.000;   84.000;    0.000;-6.00000
 574.79;  -18.000;   12.000;    0.000;-30.00000
 575.38; -100.000;  -88.000;    0.000;-12.00000
 575.96;  -58.000;  -28.000;    0.000;-30.00000
 576.55;  -79.000;  -45.000;    0.000;-34.00000
 577.13;  -47.000;   15.000;    0.000;-62.00000
 577.72;  -65.000;  -31.000;    0.000;-34.00000
 578.30;  -64.000;  -37.000;    0.000;-27.00000
 578.89;  -71.000;  -59.000;    0.000;-12.00000
 579.47;    3.000;  -15.000;    0.000;18.00000
 580.06;   27.000;   58.000;    0.000;-31.00000
 580.64;  -52.000;   -2.000;    0.000;-50.00000
 581.23;  -46.000;  -42.000;    0.000;-4.00000
 581.81;   75.000;  142.000;    0.000;-67.00000
 582.39;  -76.000;  -47.000;    0.000;-29.00000
 582.98;  -80.000;  -50.000;    0.000;-30.00000
 583.56;   26.000;   -2.000;    0.000;28.00000
 584.15;  -61.000;   10.000;    0.000;-71.00000
 584.73;  -20.000;   12.000;    0.000;-32.00000
 585.32;   48.000;   18.000;    0.000;30.00000
 585.90;  172.000;  154.000;    0.000;18.00000
 586.48; -107.000;  -22.000;    0.000;-85.00000
 587.07;   54.000;  -12.000;    0.000;66.00000
 587.65;  -62.000;   31.000;    0.000;-93.00000
 588.24;  -54.000;  -42.000;    0.000;-12.00000
 588.82;  -32.000;  -40.000;    0.000; 8.00000
 589.41; 1283.000; 1798.000;    0.000;-515.00000
 589.99;  -19.000;  -29.000;    0.000;10.00000
 590.57;  -83.000;  -60.000;    0.000;-23.00000
 591.16;   81.000;   94.000;    0.000;-13.00000
 591.74;   12.000;   29.000;    0.000;-17.00000
 592.32;  -24.000;   18.000;    0.000;-42.00000
 592.91;  -57.000;   14.000;    0.000;-71.00000
 593.49;  -91.000;  -59.000;    0.000;-32.00000
 594.08;  -55.000;  -36.000;    0.000;-19.00000
 594.66;   40.000;  -12.000;    0.000;52.00000
 595.24;  -20.000;   -2.000;    0.000;-18.00000
 595.83; -102.000;  -48.000;    0.000;-54.00000
 596.41;  -39.000;  -11.000;    0.000;-28.00000
 596.99;   35.000;   49.000;    0.000;-14.00000
 597.58;  -96.000;   -5.000;    0.000;-91.00000
 598.16;  -58.000;   60.000;    0.000;-118.00000
 598.74;   47.000;   41.000;    0.000; 6.00000
 599.33;  -87.000;  -18.000;    0.000;-69.00000
 599.91;  -98.000;  -61.000;    0.000;-37.00000
 600.49;  -70.000;  -31.000;    0.000;-39.00000
 601.08;   27.000;   73.000;    0.000;-46.00000
 601.66;  -66.000;  -16.000;    0.000;-50.00000
 602.24; -131.000; -102.000;    0.000;-29.00000
 602.83; -105.000;  -55.000;    0.000;-50.00000
 603.41;  -51.000;  -11.000;    0.000;-40.00000
 603.99;  -78.000;  -52.000;    0.000;-26.00000
 604.58;   17.000;  -11.000;    0.000;28.00000
 605.16;  -99.000;  -26.000;    0.000;-73.00000
 605.74; -130.000;  -59.000;    0.000;-71.00000
 606.33;  -83.000;  -34.000;    0.000;-49.00000
 606.91;   -7.000;  -21.000;    0.000;14.00000
 607.49;  -21.000;  -58.000;    0.000;37.00000
 608.07;  -19.000;  -48.000;    0.000;29.00000
 608.66;  -81.000;  -68.000;    0.000;-13.00000
 609.24;    9.000;   16.000;    0.000;-7.00000
 609.82; -117.000;  -69.000;    0.000;-48.00000
 610.41;    2.000;  -58.000;    0.000;60.00000
 610.99;  -77.000;  -97.000;    0.000;20.00000
 611.57;  -36.000;  -33.000;    0.000;-3.00000
 612.15;  -59.000;   15.000;    0.000;-74.00000
 612.74;   32.000;   74.000;    0.000;-42.00000
 613.32;   -7.000;  -30.000;    0.000;23.00000
 613.90;  -34.000;   42.000;    0.000;-76.00000
 614.48;  -92.000;   -3.000;    0.000;-89.00000
 615.07;   -9.000;  -48.000;    0.000;39.00000
 615.65;  -80.000;  -30.000;    0.000;-50.00000
 616.23;  -65.000;  -48.000;    0.000;-17.00000
 616.81; -113.000;  -18.000;    0.000;-95.00000
 617.40;  -58.000;  -13.000;    0.000;-45.00000
 617.98;  -76.000;   -7.000;    0.000;-69.00000
 618.56;  -56.000;    0.000;    0.000;-56.00000
 619.14;  -72.000;  -47.000;    0.000;-25.00000
 619.72;  -84.000;  -76.000;    0.000;-8.00000
 620.31;  -43.000;    9.000;    0.000;-52.00000
 620.89;  -60.000;   -9.000;    0.000;-51.00000
 621.47; -114.000;  -51.000;    0.000;-63.00000
 622.05;  -30.000;  -29.000;    0.000;-1.00000
 622.63;  -70.000;  -33.000;    0.000;-37.00000
 623.22;  -27.000;  -65.000;    0.000;38.00000
 623.80;  -86.000;    7.000;    0.000;-93.00000
 624.38;  163.000;   71.000;    0.000;92.00000
 624.96;  -33.000;  -75.000;    0.000;42.00000
 625.54;  -25.000;  -66.000;    0.000;41.00000
 626.13;  -23.000;  -17.000;    0.000;-6.00000
 626.71;  331.000;  218.000;    0.000;113.00000
 627.29;  -36.000;  -33.000;    0.000;-3.00000
 627.87;   18.000;  -49.000;    0.000;67.00000
 628.45;  -62.000;  -64.000;    0.000; 2.00000
 629.03;   43.000;   18.000;    0.000;25.00000
 629.62;  -68.000;  -58.000;    0.000;-10.00000
 630.20;  -74.000; -100.000;    0.000;26.00000
 630.78;  -53.000;  -39.000;    0.000;-14.00000
 631.36;   27.000;  -65.000;    0.000;92.00000
 631.94;  -62.000;  -40.000;    0.000;-22.00000
 632.52;   56.000;  -14.000;    0.000;70.00000
 633.10;  -23.000;  -27.000;    0.000; 4.00000
 633.68;  -40.000;  -43.000;    0.000; 3.00000
 634.27;  -38.000;  -35.000;    0.000;-3.00000
 634.85;  -41.000;  -31.000;    0.000;-10.00000
 635.43;  -58.000; -126.000;    0.000;68.00000
 636.01;  -97.000;  -31.000;    0.000;-66.00000
 636.59; -100.000;  -66.000;    0.000;-34.00000
 637.17;  -63.000;  -57.000;    0.000;-6.00000
 637.75;  -42.000;  -68.000;    0.000;26.00000
 638.33;  -71.000;  -62.000;    0.000;-9.00000
 638.91;  -50.000;  -34.000;    0.000;-16.00000
 639.50;  -44.000;  -40.000;    0.000;-4.00000
 640.08;  -97.000;  -83.000;    0.000;-14.00000
 640.66; -161.000;  -41.000;    0.000;-120.00000
 641.24;   29.000;   46.000;    0.000;-17.00000
 641.82;  -21.000;   10.000;    0.000;-31.00000
 642.40;  -50.000;  -41.000;    0.000;-9.00000
 642.98;  -56.000;  -95.000;    0.000;39.00000
 643.56;  -56.000;  -25.000;    0.000;-31.00000
 644.14;  -53.000;  -68.000;    0.000;15.00000
 644.72;   12.000;   -4.000;    0.000;16.00000
 645.30;   15.000;  -28.000;    0.000;43.00000
 645.88; -102.000;  -24.000;    0.000;-78.00000
 646.46;  -18.000;  -24.000;    0.000; 6.00000
 647.04;  -94.000;  -61.000;    0.000;-33.00000
 647.62;   62.000;   47.000;    0.000;15.00000
 648.20;   -2.000;    1.000;    0.000;-3.00000
 648.78;    5.000;   11.000;    0.000;-6.00000
 649.36;  -85.000;  -47.000;    0.000;-38.00000
 649.94;  -13.000; -112.000;    0.000;99.00000
 650.52;  -91.000;  -65.000;    0.000;-26.00000
 651.11;  -67.000;  -47.000;    0.000;-20.00000
 651.69;  -49.000;  -41.000;    0.000;-8.00000
 652.27;   -6.000;  -11.000;    0.000; 5.00000
 652.85;  -58.000;  -45.000;    0.000;-13.00000
 653.43;    5.000;  -24.000;    0.000;29.00000
 654.01;  -83.000;  -58.000;    0.000;-25.00000
 654.59; -100.000;  -52.000;    0.000;-48.00000
 655.17; -123.000;  -14.000;    0.000;-109.00000
 655.74;  -67.000;  -58.000;    0.000;-9.00000
 656.32;  -17.000;  -67.000;    0.000;50.00000
 656.90;  -31.000;  -24.000;    0.000;-7.00000
 657.48;    4.000;   67.000;    0.000;-63.00000
 658.06;  -37.000;  -68.000;    0.000;31.00000
 658.64;  -59.000;  -44.000;    0.000;-15.00000
 659.22; -110.000;  -19.000;    0.000;-91.00000
 659.80;  -67.000;  -57.000;    0.000;-10.00000
 660.38; -140.000; -114.000;    0.000;-26.00000
 660.96; -120.000; -123.000;    0.000; 3.00000
 661.54;  -81.000;  -45.000;    0.000;-36.00000
 662.12;  -51.000;  -68.000;    0.000;17.00000
 662.70;  -91.000;  -94.000;    0.000; 3.00000
 663.28; -104.000; -106.000;    0.000; 2.00000
 663.86;  -46.000;   -5.000;    0.000;-41.00000
 664.44;  -84.000;  -65.000;    0.000;-19.00000
 665.02;  -49.000;  -11.000;    0.000;-38.00000
 665.60;  -81.000;  -20.000;    0.000;-61.00000
 666.18;   42.000;  -24.000;    0.000;66.00000
 666.75;   75.000;   73.000;    0.000; 2.00000
 667.33;  -94.000;  -44.000;    0.000;-50.00000
 667.91;  228.000;  134.000;    0.000;94.00000
 668.49;  -28.000;   21.000;    0.000;-49.00000
 669.07;  -77.000;  -27.000;    0.000;-50.00000
 669.65;    0.000;  -49.000;    0.000;49.00000
 670.23;  -83.000;  -75.000;    0.000;-8.00000
 670.81;  -64.000;  -18.000;    0.000;-46.00000
 671.39; -132.000; -128.000;    0.000;-4.00000
 671.97;  -30.000;  -47.000;    0.000;17.00000
 672.54;  -46.000;   11.000;    0.000;-57.00000
 673.12;   37.000;   -1.000;    0.000;38.00000
 673.70;  -58.000;  -22.000;    0.000;-36.00000
 674.28;   34.000;   19.000;    0.000;15.00000
 674.86;  -75.000;  -70.000;    0.000;-5.00000
 675.44;  -71.000;  -36.000;    0.000;-35.00000
 676.02;  -77.000;    3.000;    0.000;-80.00000
 676.59;  -33.000;   34.000;    0.000;-67.00000
 677.17;  -79.000;    1.000;    0.000;-80.00000
 677.75;  -73.000;  -62.000;    0.000;-11.00000
 678.33; -127.000;  -83.000;    0.000;-44.00000
 678.91;  -66.000;  -44.000;    0.000;-22.00000
 679.49;  -28.000;  -14.000;    0.000;-14.00000
 680.06;  -27.000;  -71.000;    0.000;44.00000
 680.64;  -78.000;  -38.000;    0.000;-40.00000
 681.22;  -65.000;  -21.000;    0.000;-44.00000
 681.80;   25.000;  -83.000;    0.000;108.00000
 682.38;  -20.000;  -44.000;    0.000;24.00000
 682.96;  -35.000;  -10.000;    0.000;-25.00000
 683.53;  -37.000;   12.000;    0.000;-49.00000
 684.11;  -88.000;    9.000;    0.000;-97.00000
 684.69;  -65.000; -121.000;    0.000;56.00000
 685.27;    2.000;   29.000;    0.000;-27.00000
 685.85;  -59.000;  -30.000;    0.000;-29.00000
 686.42;  -28.000;  -51.000;    0.000;23.00000
 687.00;   12.000;  -37.000;    0.000;49.00000
 687.58;  -96.000;  -45.000;    0.000;-51.00000
 688.16;  -45.000;  -65.000;    0.000;20.00000
 688.73;  -59.000;  -66.000;    0.000; 7.00000
 689.31;  -10.000;  -23.000;    0.000;13.00000
 689.89;  -32.000;  -35.000;    0.000; 3.00000
 690.47;  104.000;   34.000;    0.000;70.00000
 691.04;  -94.000;  -65.000;    0.000;-29.00000
 691.62;   27.000;  -42.000;    0.000;69.00000
 692.20; -105.000;  -92.000;    0.000;-13.00000
 692.78;   48.000;  -33.000;    0.000;81.00000
 693.35;   20.000;   -6.000;    0.000;26.00000
 693.93;  -25.000;  -44.000;    0.000;19.00000
 694.51;  -72.000;  -94.000;    0.000;22.00000
 695.09;  -34.000;  -77.000;    0.000;43.00000
 695.66; -110.000;  -89.000;    0.000;-21.00000
 696.24;  -98.000; -118.000;    0.000;20.00000
 696.82;  -56.000; -107.000;    0.000;51.00000
 697.39;  -38.000;  -92.000;    0.000;54.00000
 697.97; -123.000;  -15.000;    0.000;-108.00000
 698.55;  -99.000;  -44.000;    0.000;-55.00000
 699.13;  -97.000;  -84.000;    0.000;-13.00000
 699.70;  -94.000;  -95.000;    0.000; 1.00000
 700.28;  -75.000;  -67.000;    0.000;-8.00000
 700.86;  -85.000;  -75.000;    0.000;-10.00000
 701.43; -107.000;  -49.000;    0.000;-58.00000
 702.01;  -70.000;  -51.000;    0.000;-19.00000
 702.59;  -29.000;  -48.000;    0.000;19.00000
 703.16;  -67.000; -107.000;    0.000;40.00000
 703.74;  -56.000;  -48.000;    0.000;-8.00000
 704.32;   -1.000;    4.000;    0.000;-5.00000
 704.89;  -69.000;  -66.000;    0.000;-3.00000
 705.47;    2.000;  -85.000;    0.000;87.00000
 706.05;  -21.000;  -48.000;    0.000;27.00000
 706.62; -100.000;  -59.000;    0.000;-41.00000
 707.20; -104.000;  -85.000;    0.000;-19.00000
 707.78;  -94.000;  -60.000;    0.000;-34.00000
 708.35;  -67.000; -109.000;    0.000;42.00000
 708.93;  -62.000;  -43.000;    0.000;-19.00000
 709.51;  -90.000;  -88.000;    0.000;-2.00000
 710.08; -120.000;  -96.000;    0.000;-24.00000
 710.66;    3.000;  -57.000;    0.000;60.00000
 711.23;  -35.000;  -30.000;    0.000;-5.00000
 711.81; -131.000;  -84.000;    0.000;-47.00000
 712.39;  -17.000;  -49.000;    0.000;32.00000
 712.96;  -96.000;  -95.000;    0.000;-1.00000
 713.54;  -32.000;  -40.000;    0.000; 8.00000
 714.11; -129.000;  -44.000;    0.000;-85.00000
 714.69; -113.000;  -69.000;    0.000;-44.00000
 715.27; -116.000;  -65.000;    0.000;-51.00000
 715.84;   12.000;  -19.000;    0.000;31.00000
 716.42;  -30.000;  -53.000;    0.000;23.00000
 716.99; -100.000; -111.000;    0.000;11.00000
 717.57; -134.000;  -43.000;    0.000;-91.00000
 718.15; -102.000; -102.000;    0.000; 0.00000
 718.72;  -16.000;  -48.000;    0.000;32.00000
 719.30;  -69.000; -118.000;    0.000;49.00000
 719.87; -102.000;  -42.000;    0.000;-60.00000
 720.45; -135.000; -107.000;    0.000;-28.00000
 721.02;  -47.000;  -88.000;    0.000;41.00000
 721.60; -134.000;  -75.000;    0.000;-59.00000
 722.17;  -88.000;  -60.000;    0.000;-28.00000
 722.75;  -71.000;  -92.000;    0.000;21.00000
 723.33;  -91.000; -104.000;    0.000;13.00000
 723.90;  -37.000;   19.000;    0.000;-56.00000
 724.48;  -31.000;  -80.000;    0.000;49.00000
 725.05;  -72.000;  -81.000;    0.000; 9.00000
 725.63;  -15.000;  -69.000;    0.000;54.00000
 726.20;  -15.000;  -27.000;    0.000;12.00000
 726.78;  -68.000;  -79.000;    0.000;11.00000
 727.35;   35.000;   17.000;    0.000;18.00000
 727.93; -128.000;  -73.000;    0.000;-55.00000
 728.50;   51.000;   32.000;    0.000;19.00000
 729.08;   21.000;  -54.000;    0.000;75.00000
 729.65;   84.000;   73.000;    0.000;11.00000
 730.23;  -82.000;  -78.000;    0.000;-4.00000
 730.80;  -56.000;  -70.000;    0.000;14.00000
 731.38;  -68.000;  -73.000;    0.000; 5.00000
 731.95;   37.000;   36.000;    0.000; 1.00000
 732.53;  -92.000; -116.000;    0.000;24.00000
 733.10;  -59.000;  -20.000;    0.000;-39.00000
 733.68;  -38.000;  -58.000;    0.000;20.00000
 734.25; -104.000;  -38.000;    0.000;-66.00000
 734.82;  -75.000;  -49.000;    0.000;-26.00000
 735.40;  -92.000;  -67.000;    0.000;-25.00000
 735.97;   -5.000;  -49.000;    0.000;44.00000
 736.55;  -49.000;  -10.000;    0.000;-39.00000
 737.12;  -60.000;  -56.000;    0.000;-4.00000
 737.70;  -55.000; -118.000;    0.000;63.00000
 738.27; -106.000;   -2.000;    0.000;-104.00000
 738.85;  -80.000;  -80.000;    0.000; 0.00000
 739.42;  -80.000;  -32.000;    0.000;-48.00000
 739.99;  -42.000;  -75.000;    0.000;33.00000
 740.57;  -83.000;  -96.000;    0.000;13.00000
 741.14;  -61.000;   -6.000;    0.000;-55.00000
 741.72;  -58.000;  -79.000;    0.000;21.00000
 742.29;  -88.000;  -83.000;    0.000;-5.00000
 742.87;  -51.000;  -34.000;    0.000;-17.00000
 743.44;  -71.000;  -55.000;    0.000;-16.00000
 744.01;  -64.000;  -52.000;    0.000;-12.00000
 744.59;  -53.000;  -49.000;    0.000;-4.00000
 745.16;  -56.000;   -2.000;    0.000;-54.00000
 745.73;  -39.000;  -68.000;    0.000;29.00000
 746.31;  -41.000;  -78.000;    0.000;37.00000
 746.88;  -96.000; -113.000;    0.000;17.00000
 747.46;   -8.000;  -33.000;    0.000;25.00000
 748.03;  -98.000;  -90.000;    0.000;-8.00000
 748.60;  -81.000;  -71.000;    0.000;-10.00000
 749.18;  -86.000;  -94.000;    0.000; 8.00000
 749.75;    4.000;   11.000;    0.000;-7.00000
 750.32;  -46.000;  -90.000;    0.000;44.00000
 750.90;  -63.000;  -68.000;    0.000; 5.00000
 751.47;    8.000;    5.000;    0.000; 3.00000
 752.04;  -31.000;  -42.000;    0.000;11.00000
 752.62;  -92.000;  -94.000;    0.000; 2.00000
 753.19;  -63.000;  -72.000;    0.000; 9.00000
 753.76;  -53.000;  -73.000;    0.000;20.00000
 754.34;   -4.000;  -38.000;    0.000;34.00000
 754.91;  -27.000;  -52.000;    0.000;25.00000
 755.48;  -30.000;  -44.000;    0.000;14.00000
 756.06;   11.000;   19.000;    0.000;-8.00000
 756.63;    4.000;   55.000;    0.000;-51.00000
 757.20;  -82.000;  -36.000;    0.000;-46.00000
 757.78;  -71.000;  -87.000;    0.000;16.00000
 758.35;  -31.000;  -75.000;    0.000;44.00000
 758.92;  -72.000;  -17.000;    0.000;-55.00000
 759.50;  -96.000;  -32.000;    0.000;-64.00000
 760.07;  -79.000; -105.000;    0.000;26.00000
 760.64;  -79.000;  -95.000;    0.000;16.00000
 761.21; -101.000;  -32.000;    0.000;-69.00000
 761.79;  -86.000; -110.000;    0.000;24.00000
 762.36;  -62.000;  -19.000;    0.000;-43.00000
 762.93;  -83.000;  -68.000;    0.000;-15.00000
 763.50; -105.000; -102.000;    0.000;-3.00000
 764.08;  -48.000;  -83.000;    0.000;35.00000
 764.65;  -97.000;  -60.000;    0.000;-37.00000
 765.22;  -35.000;  -73.000;    0.000;38.00000
 765.79; -163.000; -117.000;    0.000;-46.00000
 766.37;  -30.000;  -44.000;    0.000;14.00000
 766.94; -112.000;  -12.000;    0.000;-100.00000
 767.51;  -52.000;  -59.000;    0.000; 7.00000
 768.08;  -87.000;  -23.000;    0.000;-64.00000
 768.66;  -33.000;    4.000;    0.000;-37.00000
 769.23;  -79.000;  -49.000;    0.000;-30.00000
 769.80;  -68.000; -123.000;    0.000;55.00000
 770.37;  -98.000;  -56.000;    0.000;-42.00000
 770.94;  -51.000;  -11.000;    0.000;-40.00000
 771.52;  -90.000; -125.000;    0.000;35.00000
 772.09;  -47.000;  -22.000;    0.000;-25.00000
 772.66;  -12.000;  -36.000;    0.000;24.00000
 773.23;   37.000;  -63.000;    0.000;100.00000
 773.80;  -45.000;  -32.000;    0.000;-13.00000
 774.38;  -45.000;  -82.000;    0.000;37.00000
 774.95;  -29.000;  -10.000;    0.000;-19.00000
 775.52;  -66.000;  -19.000;    0.000;-47.00000
 776.09;   -7.000;   -4.000;    0.000;-3.00000
 776.66;  -82.000;  -65.000;    0.000;-17.00000
 777.24;  -18.000;  -72.000;    0.000;54.00000
 777.81;  -58.000;  -24.000;    0.000;-34.00000
 778.38;    1.000;  -84.000;    0.000;85.00000
 778.95;   17.000;  -59.000;    0.000;76.00000
 779.52;  -67.000;    1.000;    0.000;-68.00000
 780.09;   69.000;   93.000;    0.000;-24.00000
 780.66;  -65.000;    5.000;    0.000;-70.00000
 781.24;  -25.000;  -51.000;    0.000;26.00000
 781.81;  -59.000;  -60.000;    0.000; 1.00000
 782.38;  -55.000;  -77.000;    0.000;22.00000
 782.95;  -51.000; -116.000;    0.000;65.00000
 783.52;  -44.000;  -67.000;    0.000;23.00000
 784.09;  -74.000;    8.000;    0.000;-82.00000
 784.66;  -21.000;   39.000;    0.000;-60.00000
 785.23; -127.000;  -73.000;    0.000;-54.00000
 785.80;  -57.000;  -59.000;    0.000; 2.00000
 786.38;  -94.000;  -54.000;    0.000;-40.00000
 786.95;  -29.000;  -61.000;    0.000;32.00000
 787.52;  -90.000;  -79.000;    0.000;-11.00000
 788.09;   -7.000;  -88.000;    0.000;81.00000
 788.66; -150.000;  -46.000;    0.000;-104.00000
 789.23;  -11.000;  -56.000;    0.000;45.00000
 789.80;  -68.000;  -57.000;    0.000;-11.00000
 790.37; -121.000;  -75.000;    0.000;-46.00000
 790.94;  -13.000;   33.000;    0.000;-46.00000
 791.51;  -57.000;  -24.000;    0.000;-33.00000
 792.08; -129.000; -115.000;    0.000;-14.00000
 792.65;  -52.000;  -12.000;    0.000;-40.00000
 793.22;   14.000;  -62.000;    0.000;76.00000
 793.80;  -86.000; -133.000;    0.000;47.00000
 794.37;  -52.000;  -13.000;    0.000;-39.00000
 794.94;  -14.000;   41.000;    0.000;-55.00000
 795.51; -110.000;  -25.000;    0.000;-85.00000
 796.08;    1.000;  -36.000;    0.000;37.00000
 796.65; -133.000;  -63.000;    0.000;-70.00000
 797.22;  -58.000;  -82.000;    0.000;24.00000
 797.79;   53.000;   36.000;    0.000;17.00000
 798.36;  -63.000; -136.000;    0.000;73.00000
 798.93;  -47.000;  -49.000;    0.000; 2.00000
 799.50;  -70.000; -117.000;    0.000;47.00000
 800.07;  -43.000; -122.000;    0.000;79.00000
 800.64; -109.000;  -57.000;    0.000;-52.00000
 801.21;   17.000;  -21.000;    0.000;38.00000
 801.78;   47.000;  -70.000;    0.000;117.00000
 802.35; -147.000; -117.000;    0.000;-30.00000
 802.92;  -11.000;  -70.000;    0.000;59.00000
 803.49;  -94.000;  -39.000;    0.000;-55.00000
 804.06;  -41.000;  -32.000;    0.000;-9.00000
 804.63; -128.000;  -42.000;    0.000;-86.00000
 805.20;   -1.000;  -66.000;    0.000;65.00000
 805.77;  -27.000;  -30.000;    0.000; 3.00000
 806.34;  -51.000; -111.000;    0.000;60.00000
 806.91;    4.000;  -69.000;    0.000;73.00000
 807.47;  -72.000;  -74.000;    0.000; 2.00000
 808.04;  -28.000;  -58.000;    0.000;30.00000
 808.61;  -83.000;  -88.000;    0.000; 5.00000
 809.18;  -39.000;  -46.000;    0.000; 7.00000
 809.75;  -40.000;  -70.000;    0.000;30.00000
 810.32;  -88.000;  -84.000;    0.000;-4.00000
 810.89;  -34.000;  -38.000;    0.000; 4.00000
 811.46;  -53.000;   -7.000;    0.000;-46.00000
 812.03;  -61.000;  -38.000;    0.000;-23.00000
 812.60; -108.000;  -62.000;    0.000;-46.00000
 813.17; -106.000;  -53.000;    0.000;-53.00000
 813.74;  -17.000;   26.000;    0.000;-43.00000
 814.31;  -58.000;  -95.000;    0.000;37.00000
 814.87;  -38.000;  -58.000;    0.000;20.00000
 815.44;  -28.000;  -46.000;    0.000;18.00000
 816.01;   -7.000;  -21.000;    0.000;14.00000
 816.58; -122.000; -116.000;    0.000;-6.00000
 817.15;  -75.000;  -56.000;    0.000;-19.00000
 817.72;  -71.000; -100.000;    0.000;29.00000
 818.29;  -26.000;   22.000;    0.000;-48.00000
 818.86;  -55.000;   18.000;    0.000;-73.00000
 819.42;  -85.000;  -63.000;    0.000;-22.00000
 819.99;  -63.000;  -63.000;    0.000; 0.00000
 820.56; -147.000; -119.000;    0.000;-28.00000
 821.13;  -23.000;  -16.000;    0.000;-7.00000
 821.70;  -83.000; -104.000;    0.000;21.00000
 822.27;  -36.000;  -87.000;    0.000;51.00000
 822.84;  -67.000;  -32.000;    0.000;-35.00000
 823.40; -157.000;  -71.000;    0.000;-86.00000
 823.97;  -13.000;   47.000;    0.000;-60.00000
 824.54;  -57.000; -113.000;    0.000;56.00000
 825.11;  -70.000; -132.000;    0.000;62.00000
 825.68;  109.000;  105.000;    0.000; 4.00000
 826.24;  -32.000;  -36.000;    0.000; 4.00000
 826.81;  -50.000;  -70.000;    0.000;20.00000
 827.38;  -52.000;  -85.000;    0.000;33.00000
 827.95;  -41.000;    5.000;    0.000;-46.00000
 828.52;  -57.000;  -72.000;    0.000;15.00000
 829.08;  -44.000;  -53.000;    0.000; 9.00000
 829.65;  -99.000;  -74.000;    0.000;-25.00000
 830.22;    0.000;   -8.000;    0.000; 8.00000
 830.79; -124.000;  -90.000;    0.000;-34.00000
 831.36;  -52.000;  -77.000;    0.000;25.00000
 831.92;   82.000;   65.000;    0.000;17.00000
 832.49;  -73.000;  -74.000;    0.000; 1.00000
 833.06;  -32.000;   -9.000;    0.000;-23.00000
 833.63;  -22.000;  -54.000;    0.000;32.00000
 834.19;  -72.000;  -85.000;    0.000;13.00000
 834.76;  -51.000;  -53.000;    0.000; 2.00000
 835.33; -128.000; -124.000;    0.000;-4.00000
 835.90;  -78.000;  -76.000;    0.000;-2.00000
 836.46;   -9.000;  -92.000;    0.000;83.00000
 837.03;  -10.000;  -74.000;    0.000;64.00000
 837.60;  -95.000;  -85.000;    0.000;-10.00000
 838.17;   -2.000;  -23.000;    0.000;21.00000
 838.73;  -21.000;  -23.000;    0.000; 2.00000
 839.30;  -96.000;   -9.000;    0.000;-87.00000
 839.87;  -75.000;    4.000;    0.000;-79.00000
 840.43;   35.000;  -48.000;    0.000;83.00000
 841.00;    9.000;    2.000;    0.000; 7.00000
 841.57;  -60.000;  -49.000;    0.000;-11.00000
 842.14; -106.000;  -79.000;    0.000;-27.00000
 842.70;  -33.000;  -59.000;    0.000;26.00000
 843.27;  -56.000;  -73.000;    0.000;17.00000
 843.84; -103.000;  -40.000;    0.000;-63.00000
 844.40;  -90.000;  -79.000;    0.000;-11.00000
 844.97;  -45.000;  -51.000;    0.000; 6.00000
 845.54;  -52.000;  -58.000;    0.000; 6.00000
 846.10;  -92.000;  -36.000;    0.000;-56.00000
 846.67;  -97.000; -103.000;    0.000; 6.00000
 847.24;  -79.000;  -85.000;    0.000; 6.00000
 847.80; -126.000;  -66.000;    0.000;-60.00000
 848.37;  -66.000;  -96.000;    0.000;30.00000
 848.94;  -10.000;   33.000;    0.000;-43.00000
 849.50;   42.000;   19.000;    0.000;23.00000
 850.07;  -89.000;  -69.000;    0.000;-20.00000
 850.63;  -55.000;   24.000;    0.000;-79.00000
 851.20; -135.000;  -85.000;    0.000;-50.00000
 851.77;  -43.000;  -61.000;    0.000;18.00000
 852.33;    3.000;  -29.000;    0.000;32.00000
 852.90;  -92.000;  -66.000;    0.000;-26.00000
 853.47;   29.000;  -21.000;    0.000;50.00000
 854.03;  -83.000;  -94.000;    0.000;11.00000
 854.60;  -23.000;  -39.000;    0.000;16.00000
 855.16;   18.000;  -10.000;    0.000;28.00000
 855.73;  -16.000;  -22.000;    0.000; 6.00000
 856.30;   15.000;   22.000;    0.000;-7.00000
 856.86;  -55.000;  -58.000;    0.000; 3.00000
 857.43;   47.000;   -3.000;    0.000;50.00000
 857.99;  -63.000;  -14.000;    0.000;-49.00000
 858.56;  -78.000; -122.000;    0.000;44.00000
 859.12;  -24.000;  -30.000;    0.000; 6.00000
 859.69;  -47.000;  -84.000;    0.000;37.00000
 860.26; -106.000;  -54.000;    0.000;-52.00000
 860.82;  -91.000;  -50.000;    0.000;-41.00000
 861.39;   11.000;  -68.000;    0.000;79.00000
 861.95;  -68.000;  -48.000;    0.000;-20.00000
 862.52;  -31.000;   -1.000;    0.000;-30.00000
 863.08;  -41.000;  -66.000;    0.000;25.00000
 863.65;   -5.000;  -14.000;    0.000; 9.00000
 864.21;   -2.000;  -69.000;    0.000;67.00000
 864.78;  -34.000;  -13.000;    0.000;-21.00000
 865.34;  121.000;  154.000;    0.000;-33.00000
 865.91;  -28.000;  -38.000;    0.000;10.00000
 866.47; -122.000;  -58.000;    0.000;-64.00000
 867.04;  -39.000;  -77.000;    0.000;38.00000
 867.61; -149.000; -110.000;    0.000;-39.00000
 868.17;  -95.000;  -12.000;    0.000;-83.00000
 868.74; -106.000;  -60.000;    0.000;-46.00000
 869.30;  -89.000;  -72.000;    0.000;-17.00000
 869.86;  -53.000; -110.000;    0.000;57.00000
 870.43;  -82.000;  -72.000;    0.000;-10.00000
 870.99; -121.000; -115.000;    0.000;-6.00000
 871.56;  -77.000;  -63.000;    0.000;-14.00000
 872.12;  -12.000;  -65.000;    0.000;53.00000
 872.69;  -72.000; -100.000;    0.000;28.00000
 873.25;  -27.000;  -23.000;    0.000;-4.00000
 873.82;  -70.000;  -68.000;    0.000;-2.00000
 874.38;  -54.000;    7.000;    0.000;-61.00000
 874.95;   20.000;    5.000;    0.000;15.00000
 875.51;    4.000;  -13.000;    0.000;17.00000
 876.08;  -73.000;  -54.000;    0.000;-19.00000
 876.64;  -81.000; -117.000;    0.000;36.00000
 877.20; -123.000; -119.000;    0.000;-4.00000
 877.77;  -94.000;  -71.000;    0.000;-23.00000
 878.33;  -98.000;  -69.000;    0.000;-29.00000
 878.90; -100.000;  -58.000;    0.000;-42.00000
 879.46;  -20.000;  -83.000;    0.000;63.00000
 880.03;   27.000;   -3.000;    0.000;30.00000
 880.59; -101.000;  -86.000;    0.000;-15.00000
 881.15;  -33.000;   12.000;    0.000;-45.00000
 881.72;  -52.000;  -54.000;    0.000; 2.00000
 882.28;  -62.000;    7.000;    0.000;-69.00000
 882.85;  -52.000;  -88.000;    0.000;36.00000
 883.41;  -60.000;  -32.000;    0.000;-28.00000
 883.97;  264.000;  247.000;    0.000;17.00000
 884.54;  -18.000;  -62.000;    0.000;44.00000
 885.10;  -81.000;  -57.000;    0.000;-24.00000
 885.66;   38.000;   -9.000;    0.000;47.00000
 886.23;  -66.000;  -47.000;    0.000;-19.00000
 886.79;  -50.000;  -62.000;    0.000;12.00000
 887.36;  -39.000;   10.000;    0.000;-49.00000
 887.92;  -74.000;  -94.000;    0.000;20.00000
 888.48;  -67.000; -117.000;    0.000;50.00000
 889.05;  -73.000; -131.000;    0.000;58.00000
 889.61;  -35.000;  -40.000;    0.000; 5.00000
 890.17;  -75.000;  -54.000;    0.000;-21.00000
 890.74;  -75.000;  -50.000;    0.000;-25.00000
 891.30;  -43.000;  -60.000;    0.000;17.00000
 891.86;  -66.000;  -58.000;    0.000;-8.00000
 892.43;  -99.000; -119.000;    0.000;20.00000
 892.99;  -49.000;  -52.000;    0.000; 3.00000
 893.55;  -89.000;  -86.000;    0.000;-3.00000
 894.11;  -65.000;  -55.000;    0.000;-10.00000
 894.68;   45.000;  -48.000;    0.000;93.00000
 895.24;  -33.000;   24.000;    0.000;-57.00000
 895.80;  -72.000;  -65.000;    0.000;-7.00000
 896.37;  -46.000;  -58.000;    0.000;12.00000
 896.93;  -30.000;  -21.000;    0.000;-9.00000
 897.49;  -21.000; -109.000;    0.000;88.00000
 898.05;  -18.000;  -17.000;    0.000;-1.00000
 898.62;   -4.000;   47.000;    0.000;-51.00000
 899.18;  -43.000;  -86.000;    0.000;43.00000
 899.74;  123.000;   63.000;    0.000;60.00000
 900.31;  -68.000;  -12.000;    0.000;-56.00000
 900.87; -125.000;  -63.000;    0.000;-62.00000
 901.43; -106.000; -166.000;    0.000;60.00000
 901.99; -113.000;  -66.000;    0.000;-47.00000
 902.56;  -76.000;  -22.000;    0.000;-54.00000
 903.12;   94.000;   45.000;    0.000;49.00000
 903.68;  -64.000; -107.000;    0.000;43.00000
 904.24;  -57.000;  -48.000;    0.000;-9.00000
 904.80;   -8.000;   -6.000;    0.000;-2.00000
 905.37; -142.000;  -32.000;    0.000;-110.00000
 905.93;   -3.000;  -31.000;    0.000;28.00000
 906.49;  -86.000;   -2.000;    0.000;-84.00000
 907.05;  -70.000; -107.000;    0.000;37.00000
 907.61; -100.000;  -26.000;    0.000;-74.00000
 908.18;    7.000;   25.000;    0.000;-18.00000
 908.74;  -45.000;  -34.000;    0.000;-11.00000
 909.30;  -87.000;  -94.000;    0.000; 7.00000
 909.86;  -41.000;  -74.000;    0.000;33.00000
 910.42;  -60.000; -104.000;    0.000;44.00000
 910.99;  -42.000;   14.000;    0.000;-56.00000
 911.55;  -54.000;  -74.000;    0.000;20.00000
 912.11;  -35.000;  -46.000;    0.000;11.00000
 912.67;  -32.000;  -28.000;    0.000;-4.00000
 913.23;  -94.000;  -93.000;    0.000;-1.00000
 913.79;  -99.000;  -38.000;    0.000;-61.00000
 914.36;  -41.000;  -26.000;    0.000;-15.00000
 914.92;  -37.000;  -48.000;    0.000;11.00000
 915.48;  -20.000;  -69.000;    0.000;49.00000
 916.04;   43.000;   66.000;    0.000;-23.00000
 916.60;   -1.000;  -74.000;    0.000;73.00000
 917.16;  -42.000;  -68.000;    0.000;26.00000
 917.72;  -78.000;  -81.000;    0.000; 3.00000
 918.28;  -90.000;  -56.000;    0.000;-34.00000
 918.85;   -6.000;    0.000;    0.000;-6.00000
 919.41;   44.000;  -24.000;    0.000;68.00000
 919.97; -115.000;  -99.000;    0.000;-16.00000
 920.53;  -39.000;  -86.000;    0.000;47.00000
 921.09;   17.000;   65.000;    0.000;-48.00000
 921.65; -135.000;  -75.000;    0.000;-60.00000
 922.21;  -68.000;  -79.000;    0.000;11.00000
 922.77;  -33.000;  -81.000;    0.000;48.00000
 923.33;  -45.000;  -20.000;    0.000;-25.00000
 923.89;  -43.000;  -51.000;    0.000; 8.00000
 924.45;  -79.000;  -82.000;    0.000; 3.00000
 925.01;  -46.000;  -45.000;    0.000;-1.00000
 925.58; -108.000;  -31.000;    0.000;-77.00000
 926.14;  -80.000;  -59.000;    0.000;-21.00000
 926.70; -105.000;  -66.000;    0.000;-39.00000
 927.26;    1.000;   -8.000;    0.000; 9.00000
 927.82;  -35.000;  -27.000;    0.000;-8.00000
 928.38;  -56.000;  -35.000;    0.000;-21.00000
 928.94;  -76.000;  -46.000;    0.000;-30.00000
 929.50;  -22.000;  -32.000;    0.000;10.00000
 930.06; -123.000; -135.000;    0.000;12.00000
 930.62;  -87.000; -101.000;    0.000;14.00000
 931.18;  -32.000;    0.000;    0.000;-32.00000
 931.74;  -98.000;  -92.000;    0.000;-6.00000
 932.30;   19.000;  -83.000;    0.000;102.00000
 932.86;  -77.000;  -77.000;    0.000; 0.00000
 933.42;  -11.000;  -91.000;    0.000;80.00000
 933.98;  -20.000;  -53.000;    0.000;33.00000
 934.54;  -79.000;   -9.000;    0.000;-70.00000
 935.10;  -54.000;  -91.000;    0.000;37.00000
 935.66; -182.000;  -69.000;    0.000;-113.00000
 936.22;  -47.000;  -57.000;    0.000;10.00000
 936.78; -122.000;  -61.000;    0.000;-61.00000
 937.34;  -55.000;  -46.000;    0.000;-9.00000
 937.90;  -47.000;  -30.000;    0.000;-17.00000
 938.46; -123.000;  -34.000;    0.000;-89.00000
 939.02;  -43.000;  -45.000;    0.000; 2.00000
 939.58;  -63.000; -130.000;    0.000;67.00000
 940.14;  -31.000;  -54.000;    0.000;23.00000
 940.70;  -21.000;   -6.000;    0.000;-15.00000
 941.25;  -79.000;  -90.000;    0.000;11.00000
 941.81;  -29.000;  -66.000;    0.000;37.00000
 942.37;    5.000;  -62.000;    0.000;67.00000
 942.93;  -43.000; -108.000;    0.000;65.00000
 943.49; -102.000;  -64.000;    0.000;-38.00000
 944.05;  -89.000; -102.000;    0.000;13.00000
 944.61;  -42.000;    8.000;    0.000;-50.00000
 945.17;  -77.000;  -82.000;    0.000; 5.00000
 945.73;  -89.000;  -47.000;    0.000;-42.00000
 946.29;  -61.000;  -75.000;    0.000;14.00000
 946.85; -106.000; -114.000;    0.000; 8.00000
 947.40; -121.000; -121.000;    0.000; 0.00000
 947.96; -162.000;  -34.000;    0.000;-128.00000
 948.52;  -88.000;  -89.000;    0.000; 1.00000
 949.08;  -64.000;  -52.000;    0.000;-12.00000
 949.64;   39.000;   26.000;    0.000;13.00000
 950.20;  -64.000;  -25.000;    0.000;-39.00000
 950.76;   -5.000;  -50.000;    0.000;45.00000
 951.32;  -60.000;  -83.000;    0.000;23.00000
 951.87; -108.000;  -63.000;    0.000;-45.00000
 952.43;   -8.000;   12.000;    0.000;-20.00000
 952.99;   34.000;    2.000;    0.000;32.00000
 953.55;  -52.000;  -28.000;    0.000;-24.00000
 954.11;  -66.000; -127.000;    0.000;61.00000
 954.67;  -90.000;  -56.000;    0.000;-34.00000
 955.22;  -64.000;  -53.000;    0.000;-11.00000
 955.78;   29.000;   30.000;    0.000;-1.00000
 956.34;  -62.000;  -15.000;    0.000;-47.00000
 956.90; -141.000;  -80.000;    0.000;-61.00000
 957.46;  -63.000;  -89.000;    0.000;26.00000
 958.01;  -24.000;   -9.000;    0.000;-15.00000
 958.57;  -55.000;  -72.000;    0.000;17.00000
 959.13;  -43.000;  -48.000;    0.000; 5.00000
 959.69;  -84.000;  -47.000;    0.000;-37.00000
 960.25;  -63.000;  -71.000;    0.000; 8.00000
 960.80;  -14.000;  -68.000;    0.000;54.00000
 961.36;  -85.000;  -47.000;    0.000;-38.00000
 961.92; -103.000; -147.000;    0.000;44.00000
 962.48;  -60.000;  -90.000;    0.000;30.00000
 963.03;  -45.000;  -77.000;    0.000;32.00000
 963.59;  -21.000;  -29.000;    0.000; 8.00000
 964.15;  -40.000;  -99.000;    0.000;59.00000
 964.71;  -69.000;  -46.000;    0.000;-23.00000
 965.26;  -10.000;  -96.000;    0.000;86.00000
 965.82; -104.000;  -53.000;    0.000;-51.00000
 966.38; -150.000;  -68.000;    0.000;-82.00000
 966.94;  -92.000;  -82.000;    0.000;-10.00000
 967.49;  -80.000;  -82.000;    0.000; 2.00000
 968.05;  -89.000; -143.000;    0.000;54.00000
 968.61;  108.000;   56.000;    0.000;52.00000
 969.17;  -73.000;  -95.000;    0.000;22.00000
 969.72; -132.000; -108.000;    0.000;-24.00000
 970.28;  -18.000;  -64.000;    0.000;46.00000
 970.84; -110.000;  -91.000;    0.000;-19.00000
 971.39;  -32.000;  -27.000;    0.000;-5.00000
 971.95; -116.000;  -95.000;    0.000;-21.00000
 972.51; -108.000; -107.000;    0.000;-1.00000
 973.06;   15.000;   13.000;    0.000; 2.00000
 973.62;  -57.000;  -18.000;    0.000;-39.00000
 974.18;  -76.000;  -65.000;    0.000;-11.00000
 974.73;  -82.000;  -78.000;    0.000;-4.00000
 975.29;   80.000;   57.000;    0.000;23.00000
 975.85;  -18.000;  -36.000;    0.000;18.00000
 976.40;  -16.000;  -54.000;    0.000;38.00000
 976.96;  -80.000;  -81.000;    0.000; 1.00000
 977.52;  -51.000;  -24.000;    0.000;-27.00000
 978.07;  -64.000;  -56.000;    0.000;-8.00000
 978.63;  -55.000;  -93.000;    0.000;38.00000
 979.19;  -66.000;  -22.000;    0.000;-44.00000
 979.74;    8.000;  -30.000;    0.000;38.00000
 980.30; -115.000;  -95.000;    0.000;-20.00000
 980.85;    0.000;  -17.000;    0.000;17.00000
 981.41; -121.000;  -69.000;    0.000;-52.00000
 981.97;  -41.000;  -98.000;    0.000;57.00000
 982.52; -134.000; -104.000;    0.000;-30.00000
 983.08;  -59.000;   -1.000;    0.000;-58.00000
 983.63;    4.000;   13.000;    0.000;-9.00000
 984.19;  -22.000;  -84.000;    0.000;62.00000
 984.75;  -78.000;  -90.000;    0.000;12.00000
 985.30;  -97.000; -105.000;    0.000; 8.00000
 985.86; -109.000;  -75.000;    0.000;-34.00000
 986.41;  -32.000; -131.000;    0.000;99.00000
 986.97;  -91.000; -119.000;    0.000;28.00000
 987.52;  -85.000;  -74.000;    0.000;-11.00000
 988.08;  -90.000;  -99.000;    0.000; 9.00000
 988.64;  -86.000; -103.000;    0.000;17.00000
 989.19; -112.000; -112.000;    0.000; 0.00000
 989.75;   15.000;  -19.000;    0.000;34.00000
 990.30; -108.000; -110.000;    0.000; 2.00000
 990.86;  -55.000;  -57.000;    0.000; 2.00000
 991.41;  -97.000;  -66.000;    0.000;-31.00000
 991.97;  -20.000;  -57.000;    0.000;37.00000
 992.52;  -24.000; -112.000;    0.000;88.00000
 993.08;  -74.000;  -80.000;    0.000; 6.00000
 993.63;  -65.000; -115.000;    0.000;50.00000
 994.19;  -34.000;  -76.000;    0.000;42.00000
 994.74;  -74.000; -111.000;    0.000;37.00000
 995.30; -126.000; -125.000;    0.000;-1.00000
 995.85; -109.000; -109.000;    0.000; 0.00000
 996.41;    8.000;  -47.000;    0.000;55.00000
 996.96;  -21.000;  -65.000;    0.000;44.00000
 997.52;   71.000;   69.000;    0.000; 2.00000
 998.07;  -43.000;  -39.000;    0.000;-4.00000
 998.63; -110.000; -126.000;    0.000;16.00000
 999.18;  -34.000;  -20.000;    0.000;-14.00000
 999.74;  -32.000;  -88.000;    0.000;56.00000
1000.29;  -42.000; -110.000;    0.000;68.00000
1000.85;    7.000;  -57.000;    0.000;64.00000
1001.40;  -85.000;  -42.000;    0.000;-43.00000
1001.96;  -75.000;  -17.000;    0.000;-58.00000
1002.51;  -54.000;  -47.000;    0.000;-7.00000
1003.06;  -59.000;  -94.000;    0.000;35.00000
1003.62;   28.000;   21.000;    0.000; 7.00000
1004.17;  -72.000; -108.000;    0.000;36.00000
1004.73; -175.000;  -95.000;    0.000;-80.00000
1005.28;   61.000;   83.000;    0.000;-22.00000
1005.83; -145.000; -104.000;    0.000;-41.00000
1006.39;  -34.000; -107.000;    0.000;73.00000
1006.94;  -68.000; -103.000;    0.000;35.00000
1007.50;  -27.000;  -39.000;    0.000;12.00000
1008.05; -107.000;  -93.000;    0.000;-14.00000
1008.60; -118.000;  -49.000;    0.000;-69.00000
1009.16;  -71.000;  -34.000;    0.000;-37.00000
1009.71;  -60.000;  -11.000;    0.000;-49.00000
1010.27;  -59.000; -134.000;    0.000;75.00000
1010.82;  -71.000;  -90.000;    0.000;19.00000
1011.37;   -7.000;  -17.000;    0.000;10.00000
1011.93;  -71.000;    2.000;    0.000;-73.00000
1012.48;  -32.000;  -24.000;    0.000;-8.00000
1013.03;  -75.000; -102.000;    0.000;27.00000
1013.59;  -69.000;  -70.000;    0.000; 1.00000
1014.14; -101.000; -116.000;    0.000;15.00000
1014.69; -127.000;  -80.000;    0.000;-47.00000
1015.25;   98.000;   81.000;    0.000;17.00000
1015.80;  -39.000;  -40.000;    0.000; 1.00000
1016.35; -170.000;  -74.000;    0.000;-96.00000
1016.91; -140.000;  -93.000;    0.000;-47.00000
1017.46;  -99.000;  -71.000;    0.000;-28.00000
1018.01; -101.000; -120.000;    0.000;19.00000
1018.57;  -57.000; -109.000;    0.000;52.00000
1019.12;  -63.000; -100.000;    0.000;37.00000
1019.67;  -46.000;  -36.000;    0.000;-10.00000
1020.23;   67.000;    0.000;    0.000;67.00000
1020.78;  -66.000;  -87.000;    0.000;21.00000
1021.33;  -76.000;  -27.000;    0.000;-49.00000
1021.88;   61.000;  -39.000;    0.000;100.00000
1022.44;  -13.000;   27.000;    0.000;-40.00000
1022.99;  -48.000;  -95.000;    0.000;47.00000
1023.54; -111.000; -140.000;    0.000;29.00000
1024.09;   72.000;    5.000;    0.000;67.00000
1024.65;  -55.000;  -70.000;    0.000;15.00000
1025.20;  -96.000;  -86.000;    0.000;-10.00000
1025.75; -118.000; -112.000;    0.000;-6.00000
1026.30;  -41.000;  -23.000;    0.000;-18.00000
1026.86;  -48.000;  -82.000;    0.000;34.00000
1027.41;  -31.000;    6.000;    0.000;-37.00000
1027.96; -142.000;  -88.000;    0.000;-54.00000
1028.51;   35.000;   27.000;    0.000; 8.00000
1029.07;  -98.000;  -72.000;    0.000;-26.00000
1029.62;  -52.000;  -96.000;    0.000;44.00000
1030.17;  -23.000;   34.000;    0.000;-57.00000
1030.72;  -45.000;  -13.000;    0.000;-32.00000
1031.27; -120.000;  -29.000;    0.000;-91.00000
1031.83;  -23.000;  -51.000;    0.000;28.00000
1032.38;    4.000;   -7.000;    0.000;11.00000
1032.93;  -25.000;  -64.000;    0.000;39.00000
1033.48;  -62.000;  -55.000;    0.000;-7.00000
1034.03;  -34.000;  -92.000;    0.000;58.00000
1034.58;  -35.000;  -52.000;    0.000;17.00000
1035.14;  -84.000;  -85.000;    0.000; 1.00000
1035.69; -136.000;  -73.000;    0.000;-63.00000
1036.24;  -89.000; -115.000;    0.000;26.00000
1036.79;  -39.000; -119.000;    0.000;80.00000
1037.34; -103.000;  -81.000;    0.000;-22.00000
1037.89;  -78.000; -129.000;    0.000;51.00000
1038.45; -106.000; -122.000;    0.000;16.00000
1039.00;  -68.000;  -28.000;    0.000;-40.00000
1039.55;  -93.000;  -61.000;    0.000;-32.00000
1040.10;  -27.000;   11.000;    0.000;-38.00000
1040.65; -101.000;  -96.000;    0.000;-5.00000
1041.20;  -81.000; -102.000;    0.000;21.00000
1041.75;  -46.000; -103.000;    0.000;57.00000
1042.30;  -78.000; -105.000;    0.000;27.00000
1042.85;  -43.000;  -86.000;    0.000;43.00000
1043.41;  -52.000;  -33.000;    0.000;-19.00000
1043.96; -108.000;  -98.000;    0.000;-10.00000
1044.51;  -77.000;  -88.000;    0.000;11.00000
1045.06;   11.000;   20.000;    0.000;-9.00000
1045.61;  -81.000;  -54.000;    0.000;-27.00000
1046.16;  -26.000;  -38.000;    0.000;12.00000
1046.71;  -70.000;  -68.000;    0.000;-2.00000
1047.26;  -54.000;  -75.000;    0.000;21.00000
1047.81;  -58.000; -101.000;    0.000;43.00000
1048.36;  -54.000; -128.000;    0.000;74.00000
1048.91;  829.000;  740.000;    0.000;89.00000
1049.46;   73.000;   71.000;    0.000; 2.00000
1050.01; -147.000; -100.000;    0.000;-47.00000
1050.56;  -85.000; -144.000;    0.000;59.00000
1051.11;  -15.000;    5.000;    0.000;-20.00000
1051.66;  -71.000;  -89.000;    0.000;18.00000
1052.21;  -77.000;  -67.000;    0.000;-10.00000
1052.76;  -49.000;  -79.000;    0.000;30.00000
1053.31; -132.000;  -53.000;    0.000;-79.00000
1053.86;  -49.000;  -15.000;    0.000;-34.00000
1054.41;  -63.000;  -45.000;    0.000;-18.00000
1054.96;  -86.000;  -63.000;    0.000;-23.00000
1055.51;   86.000;  140.000;    0.000;-54.00000
1056.06; -102.000;  -78.000;    0.000;-24.00000
1056.61;   18.000;   66.000;    0.000;-48.00000
1057.16;  -61.000;  -48.000;    0.000;-13.00000
1057.71; -109.000; -120.000;    0.000;11.00000
1058.26;  -95.000; -105.000;    0.000;10.00000
1058.81;  -47.000;   12.000;    0.000;-59.00000
1059.36; -103.000; -114.000;    0.000;11.00000
1059.91;  -72.000;  -47.000;    0.000;-25.00000
1060.46;  -68.000;  -67.000;    0.000;-1.00000
1061.01;  -89.000; -121.000;    0.000;32.00000
1061.56;  -97.000;  -93.000;    0.000;-4.00000
1062.11;  -25.000;  -24.000;    0.000;-1.00000
1062.66;  -86.000;  -39.000;    0.000;-47.00000
1063.21; -108.000; -140.000;    0.000;32.00000
1063.76; -108.000;  -42.000;    0.000;-66.00000
1064.31;  -56.000;  -71.000;    0.000;15.00000
1064.86; -106.000;  -97.000;    0.000;-9.00000
1065.40;  -19.000;   -6.000;    0.000;-13.00000
1065.95;   16.000;  -21.000;    0.000;37.00000
1066.50;  -42.000; -100.000;    0.000;58.00000
1067.05;  -94.000;  -91.000;    0.000;-3.00000
1067.60;  -47.000;   27.000;    0.000;-74.00000
1068.15;  -89.000;  -46.000;    0.000;-43.00000
1068.70;  -60.000;  -75.000;    0.000;15.00000
1069.25;  -39.000;  -79.000;    0.000;40.00000
1069.79; -103.000;  -54.000;    0.000;-49.00000
1070.34; -117.000; -116.000;    0.000;-1.00000
1070.89;   18.000;   -8.000;    0.000;26.00000
1071.44;  -38.000;  -61.000;    0.000;23.00000
1071.99;   81.000;   96.000;    0.000;-15.00000
1072.54;  -67.000;  -88.000;    0.000;21.00000
1073.09;  -82.000;  -19.000;    0.000;-63.00000
1073.63;  -17.000;  -43.000;    0.000;26.00000
1074.18;  -85.000;  -17.000;    0.000;-68.00000
1074.73;  -59.000;  -79.000;    0.000;20.00000
1075.28;   27.000;    1.000;    0.000;26.00000
1075.83; -101.000;  -89.000;    0.000;-12.00000
1076.38;  -46.000; -122.000;    0.000;76.00000
1076.92;  -82.000;  -90.000;    0.000; 8.00000
1077.47;  -19.000;  -28.000;    0.000; 9.00000
1078.02;   20.000;   45.000;    0.000;-25.00000
1078.57; -136.000; -107.000;    0.000;-29.00000
1079.11;  -57.000;  -50.000;    0.000;-7.00000
1079.66;  -51.000;  -86.000;    0.000;35.00000
1080.21; -107.000;  -73.000;    0.000;-34.00000
1080.76;  -66.000;  -18.000;    0.000;-48.00000
1081.31; -140.000; -103.000;    0.000;-37.00000
1081.85; -158.000;  -76.000;    0.000;-82.00000
1082.40;  -21.000;  -10.000;    0.000;-11.00000
1082.95;  -85.000; -109.000;    0.000;24.00000
1083.50;  -53.000;  -20.000;    0.000;-33.00000
1084.04;  -70.000;  -68.000;    0.000;-2.00000
1084.59;  -13.000; -107.000;    0.000;94.00000
1085.14; -108.000; -104.000;    0.000;-4.00000
1085.69;  -46.000;  -32.000;    0.000;-14.00000
1086.23;  -78.000;   -9.000;    0.000;-69.00000
1086.78;   15.000;  -41.000;    0.000;56.00000
1087.33;  -32.000;  -34.000;    0.000; 2.00000
1087.87;  -76.000;  -93.000;    0.000;17.00000
1088.42;   -1.000;  -27.000;    0.000;26.00000
1088.97;  -79.000;  -88.000;    0.000; 9.00000
1089.52;  -62.000;  -75.000;    0.000;13.00000
1090.06; -150.000; -126.000;    0.000;-24.00000
1090.61;  -94.000;  -45.000;    0.000;-49.00000
1091.16; -114.000;  -85.000;    0.000;-29.00000
1091.70; -123.000;  -83.000;    0.000;-40.00000
1092.25;  -31.000;  -79.000;    0.000;48.00000
1092.80;  -59.000;  -80.000;    0.000;21.00000
1093.34;  -99.000;  -50.000;    0.000;-49.00000
1093.89;  -61.000;  -51.000;    0.000;-10.00000
1094.44;  -11.000;  -39.000;    0.000;28.00000
1094.98;   15.000;  -32.000;    0.000;47.00000
1095.53;  -23.000;  -67.000;    0.000;44.00000
1096.07;  -19.000;  -38.000;    0.000;19.00000
1096.62;  -36.000;  -75.000;    0.000;39.00000
1097.17;   15.000;   -4.000;    0.000;19.00000
1097.71;  -80.000;  -23.000;    0.000;-57.00000
1098.26;  -55.000; -132.000;    0.000;77.00000
1098.81; -121.000;  -34.000;    0.000;-87.00000
1099.35;  -90.000; -102.000;    0.000;12.00000
1099.90;    6.000;  -57.000;    0.000;63.00000
1100.44; -112.000; -172.000;    0.000;60.00000

