
Integration time [ms]: 1000.000
Averaging Nr. [scans]: 1
Smoothing Nr. [pixels]: 0
Data measured with spectrometer [name]: 1701237U1
Wave   ;Sample   ;Dark     ;Reference;Scope Corrected for Dark
[nm]   ;[counts] ;[counts] ;[counts] ;[counts] 

 173.88;  -15.015;  -33.000;    0.000;17.98546
 174.48;   39.991;  -46.000;    0.000;85.99053
 175.09;  -12.004;  -17.000;    0.000; 4.99649
 175.69;    4.991;    9.000;    0.000;-4.00920
 176.30;   30.985;   12.000;    0.000;18.98491
 176.90;  -40.005;  -29.000;    0.000;-11.00521
 177.51;   -8.003;   -4.000;    0.000;-4.00317
 178.11;   25.989;   27.000;    0.000;-1.01073
 178.72;  -59.006;  -75.000;    0.000;15.99404
 179.32;  -13.012;  -41.000;    0.000;27.98757
 179.93;  -22.012;  -16.000;    0.000;-6.01185
 180.54;  -60.003;  -23.000;    0.000;-37.00337
 181.14;   12.985;   46.000;    0.000;-33.01475
 181.75;    1.996;   34.000;    0.000;-32.00422
 182.35;  -10.003;  -62.000;    0.000;51.99693
 182.96;   96.994;   69.000;    0.000;27.99353
 183.56;  -52.016;  -51.000;    0.000;-1.01577
 184.17;  207.991;   90.000;    0.000;117.99135
 184.77;  -23.003;  -12.000;    0.000;-11.00324
 185.38;    2.990;   -8.000;    0.000;10.99033
 185.98;   74.990;  -19.000;    0.000;93.98985
 186.59;   37.994;   28.000;    0.000; 9.99414
 187.19;  -38.008;  -46.000;    0.000; 7.99189
 187.80;   53.986;    3.000;    0.000;50.98620
 188.40;   -8.021;  -37.000;    0.000;28.97915
 189.01;   20.990;  -12.000;    0.000;32.98988
 189.61;  -63.007;  -25.000;    0.000;-38.00654
 190.21;  -89.014;  -74.000;    0.000;-15.01390
 190.82;  -87.012;  -22.000;    0.000;-65.01233
 191.42;  -16.016;  -25.000;    0.000; 8.98426
 192.03;  -29.017;   25.000;    0.000;-54.01659
 192.63;  -32.019;  -45.000;    0.000;12.98133
 193.24;    5.995;   16.000;    0.000;-10.00463
 193.84;   -8.022;  -50.000;    0.000;41.97759
 194.45;  -10.019;  -26.000;    0.000;15.98110
 195.05;  -45.012;  -30.000;    0.000;-15.01240
 195.66;  -24.017;   -8.000;    0.000;-16.01744
 196.26;   12.977;   23.000;    0.000;-10.02313
 196.87;  -52.020;   18.000;    0.000;-70.02037
 197.47;  -39.017;  -52.000;    0.000;12.98345
 198.07;  -20.022; -122.000;    0.000;101.97752
 198.68;  -36.024;  -37.000;    0.000; 0.97619
 199.28;  -19.014;  -42.000;    0.000;22.98607
 199.89;  -10.030;    4.000;    0.000;-14.02960
 200.49;   20.977;    7.000;    0.000;13.97735
 201.10;   27.982;   16.000;    0.000;11.98232
 201.70;  -48.024;   46.000;    0.000;-94.02435
 202.31;  -16.011;  -50.000;    0.000;33.98934
 202.91;  -27.011;   31.000;    0.000;-58.01090
 203.51;  -24.018;   -5.000;    0.000;-19.01805
 204.12;  -20.003;   15.000;    0.000;-35.00252
 204.72;  -28.006;   34.000;    0.000;-62.00647
 205.33;  -56.011;  -26.000;    0.000;-30.01070
 205.93;  -88.013;  -11.000;    0.000;-77.01322
 206.53;  -40.015; -100.000;    0.000;59.98525
 207.14;  -54.014;  -51.000;    0.000;-3.01420
 207.74;  -44.013;  -34.000;    0.000;-10.01349
 208.35;  -14.017;  -78.000;    0.000;63.98331
 208.95;  -54.014;    3.000;    0.000;-57.01400
 209.55;  211.986;  177.000;    0.000;34.98576
 210.16;  -65.017;  -79.000;    0.000;13.98334
 210.76;  -46.016;   28.000;    0.000;-74.01574
 211.37; -123.015;  -54.000;    0.000;-69.01506
 211.97;  -73.010;  -15.000;    0.000;-58.00978
 212.57;   -8.022;  -33.000;    0.000;24.97800
 213.18;  -27.018;  -66.000;    0.000;38.98232
 213.78;  -57.020;  -21.000;    0.000;-36.01986
 214.38;  199.986;  102.000;    0.000;97.98617
 214.99;   11.982;   -9.000;    0.000;20.98232
 215.59;   55.979;  -53.000;    0.000;108.97922
 216.20;   -5.023;  -78.000;    0.000;72.97718
 216.80;  -21.022;  -39.000;    0.000;17.97844
 217.40;   49.983;    0.000;    0.000;49.98331
 218.01;   -4.024;  -13.000;    0.000; 8.97575
 218.61;  -82.020;  -50.000;    0.000;-32.01952
 219.21;  -33.014;  -44.000;    0.000;10.98590
 219.82;  137.985;   59.000;    0.000;78.98515
 220.42;  -63.015;  -77.000;    0.000;13.98450
 221.02; -138.029;  -40.000;    0.000;-98.02858
 221.63;  -39.031;  -46.000;    0.000; 6.96890
 222.23;  -70.021;  -91.000;    0.000;20.97919
 222.83;  -61.016;  -45.000;    0.000;-16.01560
 223.44;   -1.011;  -82.000;    0.000;80.98930
 224.04;   50.969;  -39.000;    0.000;89.96856
 224.64;  -17.023;  -60.000;    0.000;42.97660
 225.25;    4.985;   14.000;    0.000;-9.01526
 225.85;  -56.012;  -50.000;    0.000;-6.01209
 226.45;  -43.021;  -12.000;    0.000;-31.02088
 227.06;   43.983;   77.000;    0.000;-33.01747
 227.66;  126.985;   79.000;    0.000;47.98542
 228.26;  -19.019;  -12.000;    0.000;-7.01911
 228.87;  -22.019;  -34.000;    0.000;11.98055
 229.47;   28.983;   37.000;    0.000;-8.01652
 230.07;    3.979;  -24.000;    0.000;27.97943
 230.68;   55.991;   88.000;    0.000;-32.00944
 231.28;    5.978;   -7.000;    0.000;12.97800
 231.88;  212.980;  108.000;    0.000;104.98014
 232.48;  -26.011;    8.000;    0.000;-34.01104
 233.09;  -52.013;    7.000;    0.000;-59.01271
 233.69;  -48.016;  -79.000;    0.000;30.98399
 234.29;   40.984;   37.000;    0.000; 3.98440
 234.90;   -0.022;   35.000;    0.000;-35.02156
 235.50;    6.968;  -67.000;    0.000;73.96795
 236.10;   13.985;  -81.000;    0.000;94.98491
 236.70;  -10.021;   21.000;    0.000;-31.02051
 237.31;  -18.023;  -38.000;    0.000;19.97745
 237.91;  -72.022;    4.000;    0.000;-76.02173
 238.51;  -69.013;  -64.000;    0.000;-5.01288
 239.11;  -97.001;  -52.000;    0.000;-45.00119
 239.72;  -77.025;  -64.000;    0.000;-13.02459
 240.32;  -71.008;  -82.000;    0.000;10.99230
 240.92;   27.979;   25.000;    0.000; 2.97939
 241.53;   39.976;   21.000;    0.000;18.97551
 242.13;   44.982;   29.000;    0.000;15.98181
 242.73;  -14.015;   13.000;    0.000;-27.01485
 243.33;   27.995;  -48.000;    0.000;75.99506
 243.93;   39.978;  -41.000;    0.000;80.97817
 244.54;  -50.017;  -46.000;    0.000;-4.01652
 245.14;  -65.018;  -35.000;    0.000;-30.01805
 245.74;   48.979;   44.000;    0.000; 4.97892
 246.34;  -52.019;  -11.000;    0.000;-41.01948
 246.95;   23.977;  -79.000;    0.000;102.97721
 247.55;  -63.020;  -76.000;    0.000;12.98035
 248.15;   -5.028;  -58.000;    0.000;52.97248
 248.75;   48.986;   11.000;    0.000;37.98590
 249.36;  -30.027;  -60.000;    0.000;29.97272
 249.96;  -32.013;  -23.000;    0.000;-9.01253
 250.56;   15.980;  -15.000;    0.000;30.98035
 251.16;   -0.015;  -40.000;    0.000;39.98488
 251.76;   37.981;    3.000;    0.000;34.98120
 252.37;   10.987;   35.000;    0.000;-24.01328
 252.97;  -16.018;  -12.000;    0.000;-4.01805
 253.57;  -22.017;  -13.000;    0.000;-9.01652
 254.17;    9.978;   45.000;    0.000;-35.02221
 254.77;   42.986;    0.000;    0.000;42.98638
 255.38;  -71.022;  -69.000;    0.000;-2.02234
 255.98;    7.994;   -9.000;    0.000;16.99401
 256.58;  -17.014;   43.000;    0.000;-60.01356
 257.18;  -99.018;  -27.000;    0.000;-72.01785
 257.78;  -97.017;  -35.000;    0.000;-62.01706
 258.38;  -47.017;  -24.000;    0.000;-23.01669
 258.99;  -86.011;  -47.000;    0.000;-39.01131
 259.59;  -40.015;  -18.000;    0.000;-22.01519
 260.19;  -38.020;  -38.000;    0.000;-0.02040
 260.79;   11.980;   37.000;    0.000;-25.01986
 261.39;   47.978;  113.000;    0.000;-65.02228
 261.99;  -33.023;  -51.000;    0.000;17.97663
 262.60;  -18.022;  -68.000;    0.000;49.97793
 263.20;  -45.010; -102.000;    0.000;56.98954
 263.80;  -52.030;  -56.000;    0.000; 3.96986
 264.40;  -76.019;  -95.000;    0.000;18.98079
 265.00;   12.983;   16.000;    0.000;-3.01676
 265.60;  -95.015;  -19.000;    0.000;-76.01506
 266.20;    2.987;   12.000;    0.000;-9.01274
 266.81;  -26.016;  -17.000;    0.000;-9.01553
 267.41;  -28.021;   -8.000;    0.000;-20.02132
 268.01;   56.988;   69.000;    0.000;-12.01216
 268.61;  -76.022;  -82.000;    0.000; 5.97796
 269.21;  -52.023;  -87.000;    0.000;34.97708
 269.81;    4.990;   -9.000;    0.000;13.98985
 270.41;  -32.016;   13.000;    0.000;-45.01645
 271.01;    3.980;  -36.000;    0.000;39.97987
 271.62;  -30.011;  -24.000;    0.000;-6.01134
 272.22;  -54.013;  -78.000;    0.000;23.98692
 272.82;   -1.019;   12.000;    0.000;-13.01907
 273.42;    1.982;   18.000;    0.000;-16.01850
 274.02;   -4.015;  -53.000;    0.000;48.98467
 274.62;  -45.025;  -69.000;    0.000;23.97473
 275.22;   -9.013;  -62.000;    0.000;52.98740
 275.82;  -23.022;  -49.000;    0.000;25.97830
 276.42;   -7.021;  -64.000;    0.000;56.97881
 277.02;  -34.012; -101.000;    0.000;66.98764
 277.63;   31.980;   52.000;    0.000;-20.02006
 278.23;   62.980;  -42.000;    0.000;104.98007
 278.83;   -5.022;    8.000;    0.000;-13.02234
 279.43;   47.978;   63.000;    0.000;-15.02160
 280.03;   -1.007;  -18.000;    0.000;16.99336
 280.63;  -24.018;  -65.000;    0.000;40.98154
 281.23;   53.982;   52.000;    0.000; 1.98222
 281.83;  -19.025;  -33.000;    0.000;13.97517
 282.43; 2329.981; 2084.000;    0.000;245.98140
 283.03;   48.984;   68.000;    0.000;-19.01591
 283.63;  -58.020;  -34.000;    0.000;-24.01979
 284.23;   -1.023;  -37.000;    0.000;35.97738
 284.83;   34.977;   -4.000;    0.000;38.97697
 285.43;    0.984;    1.000;    0.000;-0.01611
 286.03;   -7.010;  -55.000;    0.000;47.99046
 286.63;   22.980;  -42.000;    0.000;64.98011
 287.23;  -68.016;  -76.000;    0.000; 7.98362
 287.84;  -67.013;  -33.000;    0.000;-34.01342
 288.44;  -13.015;  -43.000;    0.000;29.98515
 289.04;  -82.011;  -58.000;    0.000;-24.01114
 289.64;  -70.015;  -20.000;    0.000;-50.01468
 290.24;  -20.033;   -7.000;    0.000;-13.03335
 290.84;  -95.004;  -64.000;    0.000;-31.00426
 291.44;   26.990;   26.000;    0.000; 0.98954
 292.04;   -9.007;    0.000;    0.000;-9.00688
 292.64;   34.986;  -17.000;    0.000;51.98641
 293.24;  -32.010;   17.000;    0.000;-49.01005
 293.84;  -58.021; -109.000;    0.000;50.97936
 294.44;   15.980;  -20.000;    0.000;35.98028
 295.04;  -65.014;  -59.000;    0.000;-6.01369
 295.64;  -88.008;  -60.000;    0.000;-28.00807
 296.24;  -36.008;  -40.000;    0.000; 3.99159
 296.84;   10.989;  -14.000;    0.000;24.98886
 297.44;    9.983;  -85.000;    0.000;94.98317
 298.04;  -74.004;  -43.000;    0.000;-31.00409
 298.64;  -40.009;  -65.000;    0.000;24.99101
 299.24;  -14.019;  -15.000;    0.000; 0.98096
 299.84;   40.991;   10.000;    0.000;30.99094
 300.44;  -47.014;  -38.000;    0.000;-9.01434
 301.04;  -11.006;  -16.000;    0.000; 4.99441
 301.64;  -72.020;  -26.000;    0.000;-46.02020
 302.24;   20.983;  -62.000;    0.000;82.98283
 302.83;  -17.005;  -40.000;    0.000;22.99530
 303.43;  -26.019;  -30.000;    0.000; 3.98082
 304.03;  -19.024;  -97.000;    0.000;77.97605
 304.63;  -10.012;  -10.000;    0.000;-0.01240
 305.23;  -63.014;  -22.000;    0.000;-41.01424
 305.83;  -33.016; -109.000;    0.000;75.98420
 306.43;   -9.016;  -82.000;    0.000;72.98389
 307.03;   43.980;    7.000;    0.000;36.98045
 307.63;   22.984;   12.000;    0.000;10.98437
 308.23;    7.981;   62.000;    0.000;-54.01870
 308.83;   -0.020;  -12.000;    0.000;11.97970
 309.43;  -61.025;   -8.000;    0.000;-53.02548
 310.03;   -8.027;  -64.000;    0.000;55.97336
 310.63;    8.977;  -45.000;    0.000;53.97735
 311.23;  -56.027;    8.000;    0.000;-64.02725
 311.83;  -10.016;  -15.000;    0.000; 4.98362
 312.43;  -62.011;   13.000;    0.000;-75.01124
 313.02;   -0.021;    5.000;    0.000;-5.02119
 313.62;  -41.015;  -58.000;    0.000;16.98542
 314.22;   19.983;  -13.000;    0.000;32.98280
 314.82;    0.978;   61.000;    0.000;-60.02173
 315.42;   12.974;   36.000;    0.000;-23.02626
 316.02;   13.978;   -7.000;    0.000;20.97762
 316.62;   16.970;  -24.000;    0.000;40.97003
 317.22;   11.973;  -92.000;    0.000;103.97289
 317.82;  -48.025;  -50.000;    0.000; 1.97548
 318.42;  264.985;  249.000;    0.000;15.98529
 319.01;    2.975;  -62.000;    0.000;64.97476
 319.61;  -25.027;    1.000;    0.000;-26.02725
 320.21;  -52.025;  -35.000;    0.000;-17.02480
 320.81;  -36.035;  -28.000;    0.000;-8.03495
 321.41;   57.984;   44.000;    0.000;13.98420
 322.01;  -78.022;  -88.000;    0.000; 9.97796
 322.61;  -31.032;  -28.000;    0.000;-3.03171
 323.21;  -66.026;  -89.000;    0.000;22.97357
 323.80;  -90.025;  -97.000;    0.000; 6.97469
 324.40;  -41.039;  -59.000;    0.000;17.96134
 325.00; -123.033; -107.000;    0.000;-16.03287
 325.60;  -25.032;  -35.000;    0.000; 9.96785
 326.20;  -53.029;  -35.000;    0.000;-18.02909
 326.80;  -73.033; -100.000;    0.000;26.96662
 327.40;    4.960;  -32.000;    0.000;36.95964
 327.99;   34.950;  -29.000;    0.000;63.95037
 328.59;  -21.052;  -38.000;    0.000;16.94819
 329.19;  375.943;  305.000;    0.000;70.94281
 329.79;  -35.056;   19.000;    0.000;-54.05620
 330.39;   68.941;   73.000;    0.000;-4.05947
 330.99;  -27.056;    5.000;    0.000;-32.05637
 331.58;  -32.065;  -52.000;    0.000;19.93545
 332.18;  -24.072;  -58.000;    0.000;33.92789
 332.78;   80.926;   34.000;    0.000;46.92578
 333.38;   23.917;   66.000;    0.000;-42.08270
 333.98; -101.078;  -73.000;    0.000;-28.07752
 334.57;  -68.081;   -5.000;    0.000;-63.08141
 335.17;  -36.077;  -62.000;    0.000;25.92316
 335.77;  -50.073;   28.000;    0.000;-78.07313
 336.37;  141.919;  122.000;    0.000;19.91910
 336.97;   -1.067;  -45.000;    0.000;43.93331
 337.56;  -22.071;  -84.000;    0.000;61.92946
 338.16;   27.933;  -12.000;    0.000;39.93266
 338.76;   46.946;   17.000;    0.000;29.94625
 339.36;   32.940;  -66.000;    0.000;98.93968
 339.96;   85.943;   26.000;    0.000;59.94271
 340.55;    6.943;   11.000;    0.000;-4.05651
 341.15;  -48.057;  -31.000;    0.000;-17.05750
 341.75;   28.934;   58.000;    0.000;-29.06564
 342.35;  -59.066;  -92.000;    0.000;32.93389
 342.94;   -1.083;   74.000;    0.000;-75.08274
 343.54;  -26.070;    6.000;    0.000;-32.07037
 344.14;  -86.072;  -74.000;    0.000;-12.07167
 344.74;  -39.077;   -4.000;    0.000;-35.07732
 345.33;  -20.068;   25.000;    0.000;-45.06782
 345.93;   31.932;   -4.000;    0.000;35.93246
 346.53;  -49.060;  -50.000;    0.000; 0.93981
 347.13;  -35.063;  -44.000;    0.000; 8.93665
 347.72;  -12.073;  -39.000;    0.000;26.92714
 348.32;  -26.062;  -35.000;    0.000; 8.93825
 348.92;  -24.066;   17.000;    0.000;-41.06577
 349.52;  -40.068;  -58.000;    0.000;17.93215
 350.11;   19.931;   81.000;    0.000;-61.06887
 350.71;  -90.063;  -35.000;    0.000;-55.06278
 351.31;   -7.060;  -22.000;    0.000;14.94019
 351.91;  -76.061;  -95.000;    0.000;18.93947
 352.50;   -4.061;  -34.000;    0.000;29.93855
 353.10;   27.937;   -9.000;    0.000;36.93685
 353.70;   24.946;  -52.000;    0.000;76.94635
 354.29;  420.936;  362.000;    0.000;58.93603
 354.89;   23.928;  -56.000;    0.000;79.92789
 355.49;  -86.055;  -92.000;    0.000; 5.94458
 356.09;  -20.070;   13.000;    0.000;-33.06966
 356.68;  -85.061;  -59.000;    0.000;-26.06104
 357.28;   -6.074;  -46.000;    0.000;39.92598
 357.88;   25.928;  -53.000;    0.000;78.92765
 358.47;  -83.065;  -81.000;    0.000;-2.06496
 359.07;   -4.061;   51.000;    0.000;-55.06097
 359.67;  -81.062;  -42.000;    0.000;-39.06230
 360.26;    2.937;  -26.000;    0.000;28.93678
 360.86;   -5.068;   -7.000;    0.000; 1.93160
 361.46;   20.945;    6.000;    0.000;14.94485
 362.05;   15.932;    1.000;    0.000;14.93191
 362.65;  -34.056;  -40.000;    0.000; 5.94400
 363.25;  -75.056;  -50.000;    0.000;-25.05610
 363.84;  -76.055;   -1.000;    0.000;-75.05535
 364.44;   29.940;    0.000;    0.000;29.94026
 365.04; -114.061;  -21.000;    0.000;-93.06056
 365.63; -103.059;  -71.000;    0.000;-32.05882
 366.23;   20.945;  -16.000;    0.000;36.94499
 366.83;  -46.059;  -53.000;    0.000; 6.94128
 367.42;  -49.065;  -95.000;    0.000;45.93504
 368.02;  -93.059; -107.000;    0.000;13.94090
 368.62;    2.934;   33.000;    0.000;-30.06625
 369.21;   43.935;    3.000;    0.000;40.93484
 369.81;  268.936;  192.000;    0.000;76.93630
 370.41;  -73.048;  -42.000;    0.000;-31.04789
 371.00;  -80.073;  -23.000;    0.000;-57.07276
 371.60;  -49.070;  -24.000;    0.000;-25.07000
 372.19;  -64.063;  -20.000;    0.000;-44.06329
 372.79;  -38.054;  -29.000;    0.000;-9.05406
 373.39;  -54.058;    2.000;    0.000;-56.05811
 373.98;  -80.066;  -16.000;    0.000;-64.06622
 374.58;   17.939;   37.000;    0.000;-19.06080
 375.17;   25.923;  -37.000;    0.000;62.92326
 375.77;   32.933;   34.000;    0.000;-1.06659
 376.37;  -59.068;  -56.000;    0.000;-3.06765
 376.96;   17.934;   -3.000;    0.000;20.93355
 377.56;   30.940;   -8.000;    0.000;38.94039
 378.15;  -41.061;  -24.000;    0.000;-17.06117
 378.75;   17.933;  -24.000;    0.000;41.93310
 379.35;  -55.065;  -23.000;    0.000;-32.06540
 379.94;   82.931;  -18.000;    0.000;100.93099
 380.54;  -66.072;  -33.000;    0.000;-33.07163
 381.13;  -81.067;  -35.000;    0.000;-46.06703
 381.73;    6.944;  -63.000;    0.000;69.94441
 382.32;  -90.051;  -68.000;    0.000;-22.05102
 382.92;  -98.066;  -78.000;    0.000;-20.06567
 383.52;  -63.061;  -47.000;    0.000;-16.06121
 384.11;  -26.066;   -3.000;    0.000;-23.06594
 384.71;   62.928;    4.000;    0.000;58.92803
 385.30;   26.930;  -25.000;    0.000;51.93041
 385.90;   48.935;   20.000;    0.000;28.93484
 386.49;  -67.071;  -25.000;    0.000;-42.07078
 387.09;   86.927;   48.000;    0.000;38.92663
 387.68;  -66.063;   13.000;    0.000;-79.06278
 388.28;  -53.063; -103.000;    0.000;49.93661
 388.87;  246.945;  171.000;    0.000;75.94536
 389.47;   -8.071;  -41.000;    0.000;32.92898
 390.07;   49.934;  -11.000;    0.000;60.93436
 390.66;  -17.060;  -38.000;    0.000;20.93954
 391.26;  -38.069;  -43.000;    0.000; 4.93102
 391.85;  -49.066;  -41.000;    0.000;-8.06645
 392.45;  -14.068;  -16.000;    0.000; 1.93205
 393.04;  -47.058;   -6.000;    0.000;-41.05791
 393.64; -114.061;  -90.000;    0.000;-24.06083
 394.23;  -29.065;   -6.000;    0.000;-23.06506
 394.83;  -56.061;  -38.000;    0.000;-18.06080
 395.42;   30.924;    9.000;    0.000;21.92421
 396.02;   36.941;    4.000;    0.000;32.94097
 396.61;  -69.073;  -70.000;    0.000; 0.92728
 397.21;  -54.066;   12.000;    0.000;-66.06550
 397.80;11733.936;10838.000;    0.000;895.93620
 398.40;   89.935;   49.000;    0.000;40.93470
 398.99;  -16.065;  -25.000;    0.000; 8.93504
 399.59;  -46.071;    6.000;    0.000;-52.07064
 400.18;  -39.064;  -27.000;    0.000;-12.06407
 400.78;  -53.063;  -36.000;    0.000;-17.06305
 401.37;   18.945;  -24.000;    0.000;42.94492
 401.96;  -48.068;  -38.000;    0.000;-10.06761
 402.56;  -87.063;  -72.000;    0.000;-15.06308
 403.15;  -51.064;  -21.000;    0.000;-30.06380
 403.75;    8.942;   51.000;    0.000;-42.05814
 404.34;    3.933;   -3.000;    0.000; 6.93314
 404.94;  -50.065;  -60.000;    0.000; 9.93460
 405.53;  -83.068; -133.000;    0.000;49.93150
 406.13;   19.930;  -27.000;    0.000;46.93014
 406.72;  -35.057;  -42.000;    0.000; 6.94339
 407.32;  -90.065;  -46.000;    0.000;-44.06509
 407.91;   12.937;  -31.000;    0.000;43.93699
 408.50;  -42.053;  -49.000;    0.000; 6.94731
 409.10;  -18.063;  -61.000;    0.000;42.93705
 409.69;    7.943;   36.000;    0.000;-28.05750
 410.29;  -83.059;  -50.000;    0.000;-33.05896
 410.88;  -74.062;  -26.000;    0.000;-48.06247
 411.47;  -67.058;  -70.000;    0.000; 2.94158
 412.07;  -23.059;  -45.000;    0.000;21.94141
 412.66;   21.941;  -15.000;    0.000;36.94094
 413.26;  -64.056;  -70.000;    0.000; 5.94414
 413.85;  -59.055;  -76.000;    0.000;16.94526
 414.45;   69.938;  114.000;    0.000;-44.06196
 415.04;  -75.055;  -72.000;    0.000;-3.05535
 415.63;   42.938;   24.000;    0.000;18.93797
 416.23;  -58.062;  -50.000;    0.000;-8.06216
 416.82;  -22.064;  -35.000;    0.000;12.93569
 417.41;  -11.052;   -4.000;    0.000;-7.05177
 418.01;   33.939;  -43.000;    0.000;76.93940
 418.60;  -56.065; -105.000;    0.000;48.93511
 419.20;  -41.058;    6.000;    0.000;-47.05825
 419.79;  -23.055;   -5.000;    0.000;-18.05481
 420.38;  -26.057;  -41.000;    0.000;14.94284
 420.98;  -53.055;  -81.000;    0.000;27.94536
 421.57;   -2.059;  -67.000;    0.000;64.94056
 422.16;  -38.051;  -32.000;    0.000;-6.05116
 422.76;  -56.051;  -65.000;    0.000; 8.94945
 423.35;  -47.057;  -70.000;    0.000;22.94322
 423.94;  126.948;   79.000;    0.000;47.94816
 424.54;  -33.049;   -5.000;    0.000;-28.04919
 425.13;  124.939;   53.000;    0.000;71.93865
 425.73;  -18.054;   14.000;    0.000;-32.05378
 426.32;  -48.057;  -36.000;    0.000;-12.05726
 426.91;   55.951;   -4.000;    0.000;59.95143
 427.51;   14.954;  121.000;    0.000;-106.04595
 428.10;   74.949;   51.000;    0.000;23.94904
 428.69;  -61.051;  -28.000;    0.000;-33.05143
 429.28;  -86.061;  -59.000;    0.000;-27.06100
 429.88;  -14.056;  -39.000;    0.000;24.94410
 430.47;  -86.046;   -3.000;    0.000;-83.04632
 431.06;   46.949;   15.000;    0.000;31.94891
 431.66;  -24.049;  -27.000;    0.000; 2.95143
 432.25;  -81.051;  -82.000;    0.000; 0.94898
 432.84;  -47.044;  -63.000;    0.000;15.95555
 433.44;  -51.057;   -6.000;    0.000;-45.05678
 434.03;  -76.045;  -76.000;    0.000;-0.04486
 434.62;  -34.051;   36.000;    0.000;-70.05062
 435.22;  -54.037;   40.000;    0.000;-94.03703
 435.81;  -86.048;   -6.000;    0.000;-80.04837
 436.40;  -71.042;  -40.000;    0.000;-31.04248
 436.99;  -54.050;  -61.000;    0.000; 6.94952
 437.59;  -55.048;  -33.000;    0.000;-22.04827
 438.18;  -31.044;   -5.000;    0.000;-26.04360
 438.77;  -87.042; -102.000;    0.000;14.95756
 439.36; -122.050;  -83.000;    0.000;-39.05004
 439.96;  -23.038;  118.000;    0.000;-141.03781
 440.55;  -42.046;  -89.000;    0.000;46.95361
 441.14;    0.957;    6.000;    0.000;-5.04278
 441.73;   -4.057;   80.000;    0.000;-84.05709
 442.33;  -75.052;   -9.000;    0.000;-66.05249
 442.92;   75.960;   76.000;    0.000;-0.03989
 443.51;  -71.047;   16.000;    0.000;-87.04656
 444.10;  -10.049;   52.000;    0.000;-62.04949
 444.70;  -68.039;  -33.000;    0.000;-35.03938
 445.29;  -38.052;  -23.000;    0.000;-15.05232
 445.88;  -90.048;   -3.000;    0.000;-87.04810
 446.47;  -10.039;   41.000;    0.000;-51.03927
 447.07; -109.041;  -17.000;    0.000;-92.04128
 447.66;  -22.049;   63.000;    0.000;-85.04949
 448.25;    6.956;   11.000;    0.000;-4.04363
 448.84;  -63.045;   38.000;    0.000;-101.04493
 449.43;  -19.034;   -7.000;    0.000;-12.03358
 450.03;  -13.056;   71.000;    0.000;-84.05555
 450.62;  -91.051;  -20.000;    0.000;-71.05062
 451.21;  -47.053;   35.000;    0.000;-82.05310
 451.80;   24.956;  118.000;    0.000;-93.04425
 452.39;  -38.041;  -20.000;    0.000;-18.04115
 452.99;  -76.038;    6.000;    0.000;-82.03771
 453.58;  -82.039;   13.000;    0.000;-95.03897
 454.17;  -99.030;   -8.000;    0.000;-91.03018
 454.76;    7.966;   46.000;    0.000;-38.03433
 455.35;   76.962;   79.000;    0.000;-2.03822
 455.95;  -96.044;  -38.000;    0.000;-58.04411
 456.54;  -65.034;  -59.000;    0.000;-6.03406
 457.13;  -30.043;    9.000;    0.000;-39.04299
 457.72;  -54.031;  -46.000;    0.000;-8.03120
 458.31; -130.033;  -63.000;    0.000;-67.03287
 458.90;    9.959;   84.000;    0.000;-74.04128
 459.50;  -63.043;  -32.000;    0.000;-31.04316
 460.09;  -85.046;  -27.000;    0.000;-58.04602
 460.68;  -33.040;  -60.000;    0.000;26.96032
 461.27;    6.959;  -31.000;    0.000;37.95875
 461.86;   -9.037;  -21.000;    0.000;11.96270
 462.45;  -35.023;  -15.000;    0.000;-20.02343
 463.04;    0.958;  -58.000;    0.000;58.95776
 463.64;   59.972;   23.000;    0.000;36.97180
 464.23;  -35.041;   12.000;    0.000;-47.04064
 464.82;  -26.036;   46.000;    0.000;-72.03641
 465.41;   -6.023;  -64.000;    0.000;57.97691
 466.00;  -63.036;  -58.000;    0.000;-5.03621
 466.59;  -34.026;  -69.000;    0.000;34.97428
 467.18;   -7.029;  -23.000;    0.000;15.97095
 467.77;   58.966;  -52.000;    0.000;110.96597
 468.37;   16.959;  -55.000;    0.000;71.95889
 468.96;   31.959;  -18.000;    0.000;49.95875
 469.55;  768.963;   10.000;    0.000;758.96304
 470.14; 2177.959; -112.000;    0.000;2289.95926
 470.73; 2815.955;  -19.000;    0.000;2834.95524
 471.32; 3023.966;  -10.000;    0.000;3033.96577
 471.91; 3277.968;  -58.000;    0.000;3335.96808
 472.50; 3551.954;  -38.000;    0.000;3589.95391
 473.09; 3246.974;  -33.000;    0.000;3279.97442
 473.68; 3585.956;   48.000;    0.000;3537.95582
 474.27; 3397.972;  -48.000;    0.000;3445.97238
 474.86; 3380.964;  -32.000;    0.000;3412.96424
 475.46; 3317.969;  -48.000;    0.000;3365.96894
 476.05; 3230.969;   53.000;    0.000;3177.96863
 476.64; 2814.970;  -33.000;    0.000;2847.97016
 477.23; 2528.966;  -57.000;    0.000;2585.96597
 477.82; 2014.969;  -11.000;    0.000;2025.96880
 478.41;  352.969;  -55.000;    0.000;407.96907
 479.00;   55.966;  -29.000;    0.000;84.96611
 479.59;   54.961;  -43.000;    0.000;97.96069
 480.18;   60.972;   20.000;    0.000;40.97221
 480.77;   -1.028;  -90.000;    0.000;88.97180
 481.36;  -47.028;  -27.000;    0.000;-20.02796
 481.95;   -0.035;  -15.000;    0.000;14.96526
 482.54;  -38.042;  -65.000;    0.000;26.95807
 483.13;  -42.036;  -49.000;    0.000; 6.96447
 483.72;  -14.026;  -90.000;    0.000;75.97404
 484.31;  -76.031;  -68.000;    0.000;-8.03059
 484.90;    5.971;  -57.000;    0.000;62.97050
 485.49;  -93.022;  -55.000;    0.000;-38.02156
 486.08;  -55.026;  -68.000;    0.000;12.97353
 486.67;    6.976;   30.000;    0.000;-23.02391
 487.26;  -32.025;  -49.000;    0.000;16.97544
 487.85; -109.030;  -51.000;    0.000;-58.03001
 488.44;  -74.035;  -63.000;    0.000;-11.03542
 489.03;   29.972;  -15.000;    0.000;44.97241
 489.62;  -66.024;  -58.000;    0.000;-8.02415
 490.21;  -56.028; -101.000;    0.000;44.97156
 490.80;  -68.025;   31.000;    0.000;-99.02487
 491.39;  -73.029;  -76.000;    0.000; 2.97146
 491.98;   12.974;   43.000;    0.000;-30.02592
 492.57;  -39.020;   66.000;    0.000;-105.01996
 493.16;  -40.033;  -30.000;    0.000;-10.03280
 493.75;   39.968;  -45.000;    0.000;84.96781
 494.34;  -54.030;   11.000;    0.000;-65.03011
 494.93;  -52.022;  -35.000;    0.000;-17.02228
 495.52;  -63.033;  -56.000;    0.000;-7.03284
 496.11;  -70.032;  -64.000;    0.000;-6.03168
 496.70;  -60.040;  -16.000;    0.000;-44.04009
 497.29;  -99.031;  -15.000;    0.000;-84.03089
 497.88;  -18.028;   11.000;    0.000;-29.02814
 498.47;   21.973;   47.000;    0.000;-25.02735
 499.06;   86.967;   57.000;    0.000;29.96730
 499.64;  -62.026;   -9.000;    0.000;-53.02609
 500.23;  -25.030;   33.000;    0.000;-58.03035
 500.82;  -49.029;  -15.000;    0.000;-34.02923
 501.41;  -27.036;   66.000;    0.000;-93.03566
 502.00;  -47.032;  -28.000;    0.000;-19.03232
 502.59;   40.972;   24.000;    0.000;16.97156
 503.18;  -67.030;  -20.000;    0.000;-47.02974
 503.77;  -76.030;   41.000;    0.000;-117.02960
 504.36;   53.972;    2.000;    0.000;51.97217
 504.95;  -69.029;  -17.000;    0.000;-52.02892
 505.54;  -74.031;   31.000;    0.000;-105.03066
 506.12;  122.971;  195.000;    0.000;-72.02950
 506.71;  -84.029;   38.000;    0.000;-122.02943
 507.30;  -73.037;  104.000;    0.000;-177.03716
 507.89;  -25.037;   31.000;    0.000;-56.03696
 508.48;  -89.027;   76.000;    0.000;-165.02684
 509.07;  -41.040;   53.000;    0.000;-94.04047
 509.66;  -30.026;   94.000;    0.000;-124.02602
 510.25;  -75.036;   33.000;    0.000;-108.03641
 510.84;  -86.033;   78.000;    0.000;-164.03253
 511.42;  -47.030;   15.000;    0.000;-62.02984
 512.01;  121.985;  199.000;    0.000;-77.01546
 512.60;  -93.032;  102.000;    0.000;-195.03188
 513.19;  -93.033;  133.000;    0.000;-226.03280
 513.78;  -55.034;  122.000;    0.000;-177.03427
 514.37;  -11.026;  162.000;    0.000;-173.02589
 514.95;    2.979;  123.000;    0.000;-120.02105
 515.54;  -46.028;  118.000;    0.000;-164.02820
 516.13;  -47.032;  102.000;    0.000;-149.03188
 516.72;  -11.027;  180.000;    0.000;-191.02667
 517.31;    1.974;  170.000;    0.000;-168.02602
 517.90;  -54.024;   74.000;    0.000;-128.02449
 518.48;  -91.027;  128.000;    0.000;-219.02722
 519.07;   -1.034;  176.000;    0.000;-177.03352
 519.66;   57.977;  219.000;    0.000;-161.02286
 520.25;  -45.025;  104.000;    0.000;-149.02487
 520.84;  -51.030;  170.000;    0.000;-221.03008
 521.43;    0.976;  191.000;    0.000;-190.02374
 522.01;  108.976;  269.000;    0.000;-160.02422
 522.60;   48.972;  202.000;    0.000;-153.02786
 523.19;  -17.026;  165.000;    0.000;-182.02640
 523.78;  -87.030;  220.000;    0.000;-307.03038
 524.37;  -56.034;  153.000;    0.000;-209.03413
 524.95;  -25.022;  181.000;    0.000;-206.02241
 525.54;  -22.031;  152.000;    0.000;-174.03062
 526.13;  -50.029;  141.000;    0.000;-191.02882
 526.72;  -64.017;  151.000;    0.000;-215.01737
 527.30;  -14.024;  121.000;    0.000;-135.02360
 527.89;  -91.031;  108.000;    0.000;-199.03103
 528.48;  -57.023;  133.000;    0.000;-190.02258
 529.07;  -79.030;  124.000;    0.000;-203.02970
 529.65;  101.980;  240.000;    0.000;-138.02044
 530.24;  -61.030;  140.000;    0.000;-201.02991
 530.83;  -97.021;   69.000;    0.000;-166.02146
 531.42;  -59.024;  184.000;    0.000;-243.02384
 532.00;  -61.027;  159.000;    0.000;-220.02715
 532.59;  -29.018;  153.000;    0.000;-182.01792
 533.18;    9.982;  113.000;    0.000;-103.01833
 533.77;   82.972;  206.000;    0.000;-123.02817
 534.35;  -39.024;  155.000;    0.000;-194.02435
 534.94;  -21.024;   77.000;    0.000;-98.02367
 535.53;  -32.017;  109.000;    0.000;-141.01717
 536.12;    6.969;   68.000;    0.000;-61.03120
 536.70;  -68.016;   98.000;    0.000;-166.01587
 537.29;  -16.021;   71.000;    0.000;-87.02091
 537.88;  -56.021;  103.000;    0.000;-159.02071
 538.46;  -54.026;   40.000;    0.000;-94.02565
 539.05;  -44.020;   43.000;    0.000;-87.02033
 539.64;  -22.016;   68.000;    0.000;-90.01649
 540.23;   -2.023;  108.000;    0.000;-110.02299
 540.81;   75.982;  163.000;    0.000;-87.01843
 541.40;  -71.030;   45.000;    0.000;-116.02984
 541.99;  -84.023;   -1.000;    0.000;-83.02299
 542.57;  -61.021;   49.000;    0.000;-110.02078
 543.16;  -15.027;   39.000;    0.000;-54.02667
 543.75;  -70.014;   56.000;    0.000;-126.01366
 544.33;  -44.021;   44.000;    0.000;-88.02112
 544.92;  -16.014;   90.000;    0.000;-106.01417
 545.51;  -39.022;   86.000;    0.000;-125.02214
 546.09;  -69.026;  104.000;    0.000;-173.02613
 546.68;   12.975;  103.000;    0.000;-90.02521
 547.27;  -90.017;   33.000;    0.000;-123.01662
 547.85;   -6.019;   42.000;    0.000;-48.01877
 548.44; -101.016;  -18.000;    0.000;-83.01580
 549.03;  -41.015;   41.000;    0.000;-82.01495
 549.61;  -97.026;    8.000;    0.000;-105.02602
 550.20;  -89.018;   40.000;    0.000;-129.01812
 550.78;   -9.022;   70.000;    0.000;-79.02245
 551.37;  -47.009;   74.000;    0.000;-121.00937
 551.96;  -26.014;   59.000;    0.000;-85.01431
 552.54;  -75.032;   13.000;    0.000;-88.03202
 553.13;  -98.025;  -15.000;    0.000;-83.02469
 553.72;  -45.021;   -2.000;    0.000;-43.02091
 554.30;   12.990;   56.000;    0.000;-43.00991
 554.89;  -51.010;  -13.000;    0.000;-38.01049
 555.47;  -27.018;   17.000;    0.000;-44.01839
 556.06;  -35.023;   76.000;    0.000;-111.02340
 556.65;  -24.019;   68.000;    0.000;-92.01945
 557.23;   49.980;   47.000;    0.000; 2.97963
 557.82; -103.015;   10.000;    0.000;-113.01506
 558.40;  -12.018;  -50.000;    0.000;37.98150
 558.99;  -67.031;    5.000;    0.000;-72.03140
 559.58;  -70.025;   61.000;    0.000;-131.02473
 560.16; -121.031;  -38.000;    0.000;-83.03062
 560.75;  -88.027;   34.000;    0.000;-122.02664
 561.33;  -30.019;   86.000;    0.000;-116.01870
 561.92;  -82.025;    2.000;    0.000;-84.02504
 562.50;  -49.017;   27.000;    0.000;-76.01703
 563.09;  -15.021;  -14.000;    0.000;-1.02057
 563.68;  -40.019;   -4.000;    0.000;-36.01911
 564.26;  -57.022;   14.000;    0.000;-71.02238
 564.85;  -15.020;   10.000;    0.000;-25.02020
 565.43;  -57.023;   -1.000;    0.000;-56.02299
 566.02;  -81.022;   -6.000;    0.000;-75.02156
 566.60;  -50.016;  -17.000;    0.000;-33.01615
 567.19;  -84.023;  -22.000;    0.000;-62.02316
 567.77;  -24.011;   -8.000;    0.000;-16.01141
 568.36;   21.987;   18.000;    0.000; 3.98661
 568.94;  -47.018;  -28.000;    0.000;-19.01758
 569.53;  -27.019;   12.000;    0.000;-39.01894
 570.11;   -6.011;   -8.000;    0.000; 1.98944
 570.70;  -96.018;  -41.000;    0.000;-55.01751
 571.28;  -89.029;  -30.000;    0.000;-59.02888
 571.87; -135.011;  -55.000;    0.000;-80.01059
 572.45;  -30.015;   23.000;    0.000;-53.01512
 573.04; -127.027;  -31.000;    0.000;-96.02681
 573.62;  -96.017;  -35.000;    0.000;-61.01710
 574.21;  -14.019;   84.000;    0.000;-98.01914
 574.79;   -0.030;   12.000;    0.000;-12.03025
 575.38;  -87.017;  -88.000;    0.000; 0.98259
 575.96;  -52.011;  -28.000;    0.000;-24.01100
 576.55;  -96.015;  -45.000;    0.000;-51.01454
 577.13;    8.988;   15.000;    0.000;-6.01196
 577.72;  -76.016;  -31.000;    0.000;-45.01594
 578.30; -100.022;  -37.000;    0.000;-63.02180
 578.89;  -56.010;  -59.000;    0.000; 2.98995
 579.47;  -54.021;  -15.000;    0.000;-39.02108
 580.06;  -29.026;   58.000;    0.000;-87.02555
 580.64; -118.017;   -2.000;    0.000;-116.01689
 581.23;  -42.017;  -42.000;    0.000;-0.01710
 581.81;   -6.020;  142.000;    0.000;-148.02044
 582.39;  -53.016;  -47.000;    0.000;-6.01635
 582.98;  -53.026;  -50.000;    0.000;-3.02578
 583.56;  -91.028;   -2.000;    0.000;-89.02810
 584.15;   -1.022;   10.000;    0.000;-11.02207
 584.73;  -95.027;   12.000;    0.000;-107.02739
 585.32;    8.978;   18.000;    0.000;-9.02187
 585.90;  113.973;  154.000;    0.000;-40.02705
 586.48;  -40.019;  -22.000;    0.000;-18.01924
 587.07;  -34.018;  -12.000;    0.000;-22.01843
 587.65;   31.981;   31.000;    0.000; 0.98144
 588.24;  -53.017;  -42.000;    0.000;-11.01655
 588.82;  -71.018;  -40.000;    0.000;-31.01788
 589.41; 1309.985; 1798.000;    0.000;-488.01519
 589.99;   12.977;  -29.000;    0.000;41.97663
 590.57;  -62.012;  -60.000;    0.000;-2.01213
 591.16;   26.976;   94.000;    0.000;-67.02429
 591.74;  -31.017;   29.000;    0.000;-60.01741
 592.32;   24.985;   18.000;    0.000; 6.98546
 592.91;  -35.025;   14.000;    0.000;-49.02490
 593.49;  -27.014;  -59.000;    0.000;31.98586
 594.08;  -54.023;  -36.000;    0.000;-18.02269
 594.66;  -52.015;  -12.000;    0.000;-40.01478
 595.24;  -13.014;   -2.000;    0.000;-11.01359
 595.83;  -70.020;  -48.000;    0.000;-22.02006
 596.41;  -27.008;  -11.000;    0.000;-16.00838
 596.99;  -27.013;   49.000;    0.000;-76.01328
 597.58;  -62.015;   -5.000;    0.000;-57.01546
 598.16;   44.973;   60.000;    0.000;-15.02742
 598.74;  -23.017;   41.000;    0.000;-64.01652
 599.33;  -20.021;  -18.000;    0.000;-2.02122
 599.91;  -85.023;  -61.000;    0.000;-24.02275
 600.49; -115.025;  -31.000;    0.000;-84.02517
 601.08;   36.986;   73.000;    0.000;-36.01410
 601.66;  -24.015;  -16.000;    0.000;-8.01478
 602.24; -100.012; -102.000;    0.000; 1.98760
 602.83;  -41.013;  -55.000;    0.000;13.98706
 603.41;  -41.014;  -11.000;    0.000;-30.01444
 603.99;  -50.035;  -52.000;    0.000; 1.96454
 604.58;  -24.017;  -11.000;    0.000;-13.01676
 605.16;  -12.021;  -26.000;    0.000;13.97946
 605.74;  -86.017;  -59.000;    0.000;-27.01741
 606.33;  -39.016;  -34.000;    0.000;-5.01560
 606.91;  -61.023;  -21.000;    0.000;-40.02309
 607.49;  -36.021;  -58.000;    0.000;21.97932
 608.07;  -42.014;  -48.000;    0.000; 5.98620
 608.66;  -73.016;  -68.000;    0.000;-5.01563
 609.24;  -33.015;   16.000;    0.000;-49.01489
 609.82;  -57.019;  -69.000;    0.000;11.98103
 610.41;  -34.018;  -58.000;    0.000;23.98161
 610.99;  -59.016;  -97.000;    0.000;37.98375
 611.57;   47.990;  -33.000;    0.000;80.98978
 612.15;  -63.018;   15.000;    0.000;-78.01836
 612.74;   77.990;   74.000;    0.000; 3.98992
 613.32;  -11.018;  -30.000;    0.000;18.98236
 613.90;  -29.015;   42.000;    0.000;-71.01546
 614.48;  -90.020;   -3.000;    0.000;-87.02010
 615.07;  -19.027;  -48.000;    0.000;28.97302
 615.65;  -89.008;  -30.000;    0.000;-59.00770
 616.23;  -99.018;  -48.000;    0.000;-51.01754
 616.81;  -79.030;  -18.000;    0.000;-61.03035
 617.40;  -81.038;  -13.000;    0.000;-68.03757
 617.98;  -34.044;   -7.000;    0.000;-27.04425
 618.56;  -70.028;    0.000;    0.000;-70.02790
 619.14;  -94.032;  -47.000;    0.000;-47.03236
 619.72;  -43.032;  -76.000;    0.000;32.96805
 620.31;   -3.025;    9.000;    0.000;-12.02480
 620.89;  -57.021;   -9.000;    0.000;-48.02064
 621.47;  -59.022;  -51.000;    0.000;-8.02197
 622.05;  -51.020;  -29.000;    0.000;-22.02040
 622.63;  -54.026;  -33.000;    0.000;-21.02582
 623.22;  -91.013;  -65.000;    0.000;-26.01308
 623.80;  -93.027;    7.000;    0.000;-100.02705
 624.38;   58.982;   71.000;    0.000;-12.01792
 624.96;  -76.026;  -75.000;    0.000;-1.02578
 625.54;  -69.024;  -66.000;    0.000;-3.02378
 626.13;  -38.014;  -17.000;    0.000;-21.01444
 626.71;  341.979;  218.000;    0.000;123.97915
 627.29;  -49.034;  -33.000;    0.000;-16.03406
 627.87;  -60.022;  -49.000;    0.000;-11.02156
 628.45;  -87.021;  -64.000;    0.000;-23.02064
 629.03;   16.976;   18.000;    0.000;-1.02364
 629.62; -107.024;  -58.000;    0.000;-49.02442
 630.20; -168.023; -100.000;    0.000;-68.02337
 630.78; -118.019;  -39.000;    0.000;-79.01873
 631.36;  -49.028;  -65.000;    0.000;15.97176
 631.94;  -80.018;  -40.000;    0.000;-40.01781
 632.52;  -23.015;  -14.000;    0.000;-9.01526
 633.10;  -40.028;  -27.000;    0.000;-13.02810
 633.68;  -89.026;  -43.000;    0.000;-46.02599
 634.27;  -63.024;  -35.000;    0.000;-28.02408
 634.85;  -16.027;  -31.000;    0.000;14.97302
 635.43;  -84.035; -126.000;    0.000;41.96492
 636.01; -116.021;  -31.000;    0.000;-85.02057
 636.59;  -41.022;  -66.000;    0.000;24.97755
 637.17;  -61.040;  -57.000;    0.000;-4.04016
 637.75;  -32.029;  -68.000;    0.000;35.97088
 638.33; -112.030;  -62.000;    0.000;-50.03001
 638.91;   -8.027;  -34.000;    0.000;25.97275
 639.50;  -60.036;  -40.000;    0.000;-20.03617
 640.08;  -79.025;  -83.000;    0.000; 3.97475
 640.66;  -80.025;  -41.000;    0.000;-39.02519
 641.24;   51.975;   46.000;    0.000; 5.97488
 641.82;  -38.025;   10.000;    0.000;-48.02506
 642.40;    5.975;  -41.000;    0.000;46.97500
 642.98;  -63.025;  -95.000;    0.000;31.97506
 643.56;  -42.025;  -25.000;    0.000;-17.02488
 644.14;  -50.025;  -68.000;    0.000;17.97518
 644.72;  -21.025;   -4.000;    0.000;-17.02475
 645.30;  -11.025;  -28.000;    0.000;16.97531
 645.88;  -86.025;  -24.000;    0.000;-62.02463
 646.46;  -47.025;  -24.000;    0.000;-23.02457
 647.04; -131.025;  -61.000;    0.000;-70.02451
 647.62;    9.976;   47.000;    0.000;-37.02444
 648.20;   17.976;    1.000;    0.000;16.97562
 648.78;  -19.024;   11.000;    0.000;-30.02432
 649.36;  -48.024;  -47.000;    0.000;-1.02426
 649.94;  -75.024; -112.000;    0.000;36.97580
 650.52;  -85.024;  -65.000;    0.000;-20.02413
 651.11;  -25.024;  -47.000;    0.000;21.97593
 651.69;  -30.024;  -41.000;    0.000;10.97599
 652.27;  -66.024;  -11.000;    0.000;-55.02395
 652.85;  -50.024;  -45.000;    0.000;-5.02389
 653.43;   -6.024;  -24.000;    0.000;17.97617
 654.01;  -53.024;  -58.000;    0.000; 4.97624
 654.59;  -57.024;  -52.000;    0.000;-5.02370
 655.17;  -71.024;  -14.000;    0.000;-57.02364
 655.74;  -81.024;  -58.000;    0.000;-23.02358
 656.32; -101.024;  -67.000;    0.000;-34.02352
 656.90;  -66.023;  -24.000;    0.000;-42.02345
 657.48;   38.977;   67.000;    0.000;-28.02339
 658.06;  -43.023;  -68.000;    0.000;24.97667
 658.64;  -17.023;  -44.000;    0.000;26.97673
 659.22; -102.023;  -19.000;    0.000;-83.02321
 659.80;  -63.023;  -57.000;    0.000;-6.02314
 660.38; -110.023; -114.000;    0.000; 3.97692
 660.96;  -78.023; -123.000;    0.000;44.97698
 661.54;  -68.023;  -45.000;    0.000;-23.02296
 662.12;    0.977;  -68.000;    0.000;68.97710
 662.70;  -87.023;  -94.000;    0.000; 6.97716
 663.28;  -25.023; -106.000;    0.000;80.97723
 663.86;   16.977;   -5.000;    0.000;21.97729
 664.44;  -86.023;  -65.000;    0.000;-21.02265
 665.02;   -3.023;  -11.000;    0.000; 7.97741
 665.60;  -76.023;  -20.000;    0.000;-56.02253
 666.18;  -18.022;  -24.000;    0.000; 5.97754
 666.75;  109.978;   73.000;    0.000;36.97760
 667.33;  -21.022;  -44.000;    0.000;22.97766
 667.91;  159.978;  134.000;    0.000;25.97772
 668.49;   19.978;   21.000;    0.000;-1.02222
 669.07;  -47.022;  -27.000;    0.000;-20.02215
 669.65;  -57.022;  -49.000;    0.000;-8.02209
 670.23;  -27.022;  -75.000;    0.000;47.97797
 670.81;  -90.022;  -18.000;    0.000;-72.02197
 671.39; -114.022; -128.000;    0.000;13.97809
 671.97;  -55.022;  -47.000;    0.000;-8.02185
 672.54;  -35.022;   11.000;    0.000;-46.02178
 673.12;   36.978;   -1.000;    0.000;37.97828
 673.70;   38.978;  -22.000;    0.000;60.97834
 674.28;  -15.022;   19.000;    0.000;-34.02160
 674.86;  -68.022;  -70.000;    0.000; 1.97846
 675.44;   -3.021;  -36.000;    0.000;32.97853
 676.02;  -44.021;    3.000;    0.000;-47.02141
 676.59;   19.979;   34.000;    0.000;-14.02135
 677.17;  -82.021;    1.000;    0.000;-83.02129
 677.75;  -46.021;  -62.000;    0.000;15.97877
 678.33; -112.021;  -83.000;    0.000;-29.02116
 678.91;  -78.021;  -44.000;    0.000;-34.02110
 679.49; -106.021;  -14.000;    0.000;-92.02104
 680.06;  -83.021;  -71.000;    0.000;-12.02098
 680.64;  -39.021;  -38.000;    0.000;-1.02092
 681.22; -128.021;  -21.000;    0.000;-107.02085
 681.80;  -53.021;  -83.000;    0.000;29.97921
 682.38;  -79.021;  -44.000;    0.000;-35.02073
 682.96;  -14.021;  -10.000;    0.000;-4.02067
 683.53;  -25.021;   12.000;    0.000;-37.02061
 684.11;  -92.021;    9.000;    0.000;-101.02055
 684.69;  -88.020; -121.000;    0.000;32.97952
 685.27;   -4.020;   29.000;    0.000;-33.02042
 685.85;  -71.020;  -30.000;    0.000;-41.02036
 686.42; -133.020;  -51.000;    0.000;-82.02030
 687.00;  -60.020;  -37.000;    0.000;-23.02024
 687.58;  -32.020;  -45.000;    0.000;12.97983
 688.16; -134.020;  -65.000;    0.000;-69.02011
 688.73;  -68.020;  -66.000;    0.000;-2.02005
 689.31;  -34.020;  -23.000;    0.000;-11.01999
 689.89;   13.980;  -35.000;    0.000;48.98007
 690.47;   67.980;   34.000;    0.000;33.98014
 691.04;  -69.020;  -65.000;    0.000;-4.01980
 691.62;   29.980;  -42.000;    0.000;71.98026
 692.20;  -81.020;  -92.000;    0.000;10.98032
 692.78;   34.980;  -33.000;    0.000;67.98038
 693.35;  -32.020;   -6.000;    0.000;-26.01956
 693.93;  -68.019;  -44.000;    0.000;-24.01949
 694.51;  -89.019;  -94.000;    0.000; 4.98057
 695.09;  -88.019;  -77.000;    0.000;-11.01937
 695.66;  -71.019;  -89.000;    0.000;17.98069
 696.24;  -56.019; -118.000;    0.000;61.98075
 696.82;  -56.019; -107.000;    0.000;50.98082
 697.39;  -64.019;  -92.000;    0.000;27.98088
 697.97;   -6.019;  -15.000;    0.000; 8.98094
 698.55;  -73.019;  -44.000;    0.000;-29.01900
 699.13; -104.019;  -84.000;    0.000;-20.01894
 699.70; -130.019;  -95.000;    0.000;-35.01887
 700.28;  -96.019;  -67.000;    0.000;-29.01881
 700.86;  -51.019;  -75.000;    0.000;23.98125
 701.43;  -85.019;  -49.000;    0.000;-36.01869
 702.01;  -40.019;  -51.000;    0.000;10.98137
 702.59;    6.981;  -48.000;    0.000;54.98143
 703.16;  -34.019; -107.000;    0.000;72.98150
 703.74;  -18.018;  -48.000;    0.000;29.98156
 704.32;    1.982;    4.000;    0.000;-2.01838
 704.89; -100.018;  -66.000;    0.000;-34.01832
 705.47;  -44.018;  -85.000;    0.000;40.98174
 706.05;    8.982;  -48.000;    0.000;56.98181
 706.62;  -57.018;  -59.000;    0.000; 1.98187
 707.20;  -71.018;  -85.000;    0.000;13.98193
 707.78;  -90.018;  -60.000;    0.000;-30.01801
 708.35;  -50.018; -109.000;    0.000;58.98205
 708.93;  -53.018;  -43.000;    0.000;-10.01788
 709.51;  -13.018;  -88.000;    0.000;74.98218
 710.08;  -87.018;  -96.000;    0.000; 8.98224
 710.66;  -11.018;  -57.000;    0.000;45.98230
 711.23;  -79.018;  -30.000;    0.000;-49.01764
 711.81;  -97.018;  -84.000;    0.000;-13.01758
 712.39;   13.982;  -49.000;    0.000;62.98249
 712.96; -130.017;  -95.000;    0.000;-35.01745
 713.54;  -57.017;  -40.000;    0.000;-17.01739
 714.11; -102.017;  -44.000;    0.000;-58.01733
 714.69; -106.017;  -69.000;    0.000;-37.01727
 715.27; -121.017;  -65.000;    0.000;-56.01720
 715.84;  -11.017;  -19.000;    0.000; 7.98286
 716.42;  -55.017;  -53.000;    0.000;-2.01708
 716.99;  -91.017; -111.000;    0.000;19.98298
 717.57;  -51.017;  -43.000;    0.000;-8.01696
 718.15;  -80.017; -102.000;    0.000;21.98311
 718.72;    7.983;  -48.000;    0.000;55.98317
 719.30; -111.017; -118.000;    0.000; 6.98323
 719.87;  -58.017;  -42.000;    0.000;-16.01671
 720.45;  -93.017; -107.000;    0.000;13.98335
 721.02;  -52.017;  -88.000;    0.000;35.98342
 721.60;  -90.017;  -75.000;    0.000;-15.01652
 722.17;  -98.016;  -60.000;    0.000;-38.01646
 722.75;  -47.016;  -92.000;    0.000;44.98360
 723.33;  -89.016; -104.000;    0.000;14.98366
 723.90;  -34.016;   19.000;    0.000;-53.01628
 724.48;  -17.016;  -80.000;    0.000;62.98379
 725.05;  -21.016;  -81.000;    0.000;59.98385
 725.63;   -6.016;  -69.000;    0.000;62.98391
 726.20;    3.984;  -27.000;    0.000;30.98397
 726.78;  -25.016;  -79.000;    0.000;53.98403
 727.35;  -14.016;   17.000;    0.000;-31.01590
 727.93;  -95.016;  -73.000;    0.000;-22.01584
 728.50;   96.984;   32.000;    0.000;64.98422
 729.08;  -72.016;  -54.000;    0.000;-18.01572
 729.65;   53.984;   73.000;    0.000;-19.01566
 730.23;   -7.016;  -78.000;    0.000;70.98441
 730.80; -103.016;  -70.000;    0.000;-33.01553
 731.38;   -4.015;  -73.000;    0.000;68.98453
 731.95;   67.985;   36.000;    0.000;31.98459
 732.53;  -67.015; -116.000;    0.000;48.98465
 733.10;  -23.015;  -20.000;    0.000;-3.01529
 733.68;  -68.015;  -58.000;    0.000;-10.01522
 734.25;  -50.015;  -38.000;    0.000;-12.01516
 734.82;  -76.015;  -49.000;    0.000;-27.01510
 735.40;  -45.015;  -67.000;    0.000;21.98496
 735.97;   25.985;  -49.000;    0.000;74.98502
 736.55;    1.985;  -10.000;    0.000;11.98509
 737.12;  -93.015;  -56.000;    0.000;-37.01485
 737.70; -144.015; -118.000;    0.000;-26.01479
 738.27; -137.015;   -2.000;    0.000;-135.01473
 738.85;  -77.015;  -80.000;    0.000; 2.98533
 739.42;  -83.015;  -32.000;    0.000;-51.01460
 739.99;  -82.015;  -75.000;    0.000;-7.01454
 740.57;  -66.014;  -96.000;    0.000;29.98552
 741.14;  -58.014;   -6.000;    0.000;-52.01442
 741.72; -119.014;  -79.000;    0.000;-40.01436
 742.29; -121.014;  -83.000;    0.000;-38.01430
 742.87;  -47.014;  -34.000;    0.000;-13.01423
 743.44;  -49.014;  -55.000;    0.000; 5.98583
 744.01;  -59.014;  -52.000;    0.000;-7.01411
 744.59;  -31.014;  -49.000;    0.000;17.98595
 745.16;    4.986;   -2.000;    0.000; 6.98601
 745.73;  -77.014;  -68.000;    0.000;-9.01392
 746.31;  -89.014;  -78.000;    0.000;-11.01386
 746.88;  -57.014; -113.000;    0.000;55.98620
 747.46;  -20.014;  -33.000;    0.000;12.98626
 748.03;  -75.014;  -90.000;    0.000;14.98632
 748.60;    2.986;  -71.000;    0.000;73.98639
 749.18;  -64.014;  -94.000;    0.000;29.98645
 749.75;   64.987;   11.000;    0.000;53.98651
 750.32;  -76.013;  -90.000;    0.000;13.98657
 750.90;  -82.013;  -68.000;    0.000;-14.01337
 751.47;   11.987;    5.000;    0.000; 6.98669
 752.04;  -10.013;  -42.000;    0.000;31.98676
 752.62; -115.013;  -94.000;    0.000;-21.01318
 753.19;  -72.013;  -72.000;    0.000;-0.01312
 753.76;  -49.013;  -73.000;    0.000;23.98694
 754.34;   19.987;  -38.000;    0.000;57.98700
 754.91;    6.987;  -52.000;    0.000;58.98707
 755.48;   23.987;  -44.000;    0.000;67.98713
 756.06;   33.987;   19.000;    0.000;14.98719
 756.63;   90.987;   55.000;    0.000;35.98725
 757.20;  -92.013;  -36.000;    0.000;-56.01269
 757.78; -125.013;  -87.000;    0.000;-38.01262
 758.35;  -46.013;  -75.000;    0.000;28.98744
 758.92;  -13.013;  -17.000;    0.000; 3.98750
 759.50;  -86.012;  -32.000;    0.000;-54.01244
 760.07;  -98.012; -105.000;    0.000; 6.98762
 760.64;  -70.012;  -95.000;    0.000;24.98769
 761.21;  -27.012;  -32.000;    0.000; 4.98775
 761.79; -110.012; -110.000;    0.000;-0.01219
 762.36;  -63.012;  -19.000;    0.000;-44.01213
 762.93; -125.012;  -68.000;    0.000;-57.01207
 763.50; -107.012; -102.000;    0.000;-5.01201
 764.08;  -87.012;  -83.000;    0.000;-4.01194
 764.65;  -75.012;  -60.000;    0.000;-15.01188
 765.22;  -99.012;  -73.000;    0.000;-26.01182
 765.79;  -69.012; -117.000;    0.000;47.98824
 766.37;  -17.012;  -44.000;    0.000;26.98830
 766.94;  -52.012;  -12.000;    0.000;-40.01163
 767.51;  -91.012;  -59.000;    0.000;-32.01157
 768.08;  -42.012;  -23.000;    0.000;-19.01151
 768.66;  -64.011;    4.000;    0.000;-68.01145
 769.23;  -35.011;  -49.000;    0.000;13.98861
 769.80;  -74.011; -123.000;    0.000;48.98868
 770.37;  -78.011;  -56.000;    0.000;-22.01126
 770.94; -135.011;  -11.000;    0.000;-124.01120
 771.52;  -80.011; -125.000;    0.000;44.98886
 772.09; -103.011;  -22.000;    0.000;-81.01108
 772.66;   10.989;  -36.000;    0.000;46.98898
 773.23;  -23.011;  -63.000;    0.000;39.98905
 773.80;   -8.011;  -32.000;    0.000;23.98911
 774.38; -134.011;  -82.000;    0.000;-52.01083
 774.95;   11.989;  -10.000;    0.000;21.98923
 775.52; -122.011;  -19.000;    0.000;-103.01071
 776.09;  -44.011;   -4.000;    0.000;-40.01064
 776.66; -180.011;  -65.000;    0.000;-115.01058
 777.24;    6.989;  -72.000;    0.000;78.98948
 777.81;  -32.010;  -24.000;    0.000;-8.01046
 778.38; -101.010;  -84.000;    0.000;-17.01040
 778.95;  -10.010;  -59.000;    0.000;48.98967
 779.52;  -16.010;    1.000;    0.000;-17.01027
 780.09;   89.990;   93.000;    0.000;-3.01021
 780.66; -116.010;    5.000;    0.000;-121.01015
 781.24;  -38.010;  -51.000;    0.000;12.98991
 781.81;  -75.010;  -60.000;    0.000;-15.01003
 782.38;  -70.010;  -77.000;    0.000; 6.99004
 782.95; -131.010; -116.000;    0.000;-15.00990
 783.52; -112.010;  -67.000;    0.000;-45.00984
 784.09;  -19.010;    8.000;    0.000;-27.00978
 784.66;  -31.010;   39.000;    0.000;-70.00972
 785.23; -101.010;  -73.000;    0.000;-28.00965
 785.80;  -77.010;  -59.000;    0.000;-18.00959
 786.38;  -32.010;  -54.000;    0.000;21.99047
 786.95;  -11.009;  -61.000;    0.000;49.99053
 787.52;  -64.009;  -79.000;    0.000;14.99059
 788.09;  -96.009;  -88.000;    0.000;-8.00934
 788.66;  -83.009;  -46.000;    0.000;-37.00928
 789.23;  -42.009;  -56.000;    0.000;13.99078
 789.80;  -66.009;  -57.000;    0.000;-9.00916
 790.37; -110.009;  -75.000;    0.000;-35.00910
 790.94;   -8.009;   33.000;    0.000;-41.00904
 791.51;  -99.009;  -24.000;    0.000;-75.00897
 792.08; -125.009; -115.000;    0.000;-10.00891
 792.65;  -91.009;  -12.000;    0.000;-79.00885
 793.22;  -27.009;  -62.000;    0.000;34.99121
 793.80;  -52.009; -133.000;    0.000;80.99127
 794.37;  -68.009;  -13.000;    0.000;-55.00866
 794.94;   23.991;   41.000;    0.000;-17.00860
 795.51;  -52.009;  -25.000;    0.000;-27.00854
 796.08;  -27.008;  -36.000;    0.000; 8.99152
 796.65; -104.008;  -63.000;    0.000;-41.00842
 797.22;  -80.008;  -82.000;    0.000; 1.99165
 797.79;   23.992;   36.000;    0.000;-12.00829
 798.36;  -34.008; -136.000;    0.000;101.99177
 798.93;  -52.008;  -49.000;    0.000;-3.00817
 799.50;  -82.008; -117.000;    0.000;34.99189
 800.07;  -70.008; -122.000;    0.000;51.99196
 800.64; -102.008;  -57.000;    0.000;-45.00798
 801.21;  -43.008;  -21.000;    0.000;-22.00792
 801.78;   -4.008;  -70.000;    0.000;65.99214
 802.35; -119.008; -117.000;    0.000;-2.00780
 802.92;  -97.008;  -70.000;    0.000;-27.00774
 803.49; -135.008;  -39.000;    0.000;-96.00767
 804.06;  -67.008;  -32.000;    0.000;-35.00761
 804.63;  -50.008;  -42.000;    0.000;-8.00755
 805.20;   86.993;  -66.000;    0.000;152.99251
 805.77;  120.993;  -30.000;    0.000;150.99257
 806.34;  190.993; -111.000;    0.000;301.99264
 806.91;  299.993;  -69.000;    0.000;368.99270
 807.47;  396.993;  -74.000;    0.000;470.99276
 808.04;  466.993;  -58.000;    0.000;524.99282
 808.61;  442.993;  -88.000;    0.000;530.99288
 809.18;  482.993;  -46.000;    0.000;528.99295
 809.75;  517.993;  -70.000;    0.000;587.99301
 810.32;  527.993;  -84.000;    0.000;611.99307
 810.89;  471.993;  -38.000;    0.000;509.99313
 811.46;  494.993;   -7.000;    0.000;501.99319
 812.03;  515.993;  -38.000;    0.000;553.99325
 812.60;  446.993;  -62.000;    0.000;508.99332
 813.17;  351.993;  -53.000;    0.000;404.99338
 813.74;  395.993;   26.000;    0.000;369.99344
 814.31;  239.994;  -95.000;    0.000;334.99350
 814.87;  107.994;  -58.000;    0.000;165.99356
 815.44;  -14.006;  -46.000;    0.000;31.99363
 816.01;    1.994;  -21.000;    0.000;22.99369
 816.58;  -80.006; -116.000;    0.000;35.99375
 817.15;   -4.006;  -56.000;    0.000;51.99381
 817.72; -106.006; -100.000;    0.000;-6.00613
 818.29;   -7.006;   22.000;    0.000;-29.00606
 818.86;  -33.006;   18.000;    0.000;-51.00600
 819.42;  -38.006;  -63.000;    0.000;24.99406
 819.99;  -88.006;  -63.000;    0.000;-25.00588
 820.56; -123.006; -119.000;    0.000;-4.00582
 821.13;  -11.006;  -16.000;    0.000; 4.99424
 821.70; -125.006; -104.000;    0.000;-21.00569
 822.27;  -43.006;  -87.000;    0.000;43.99437
 822.84;  -14.006;  -32.000;    0.000;17.99443
 823.40; -157.006;  -71.000;    0.000;-86.00551
 823.97;    1.995;   47.000;    0.000;-45.00545
 824.54;  -66.005; -113.000;    0.000;46.99462
 825.11; -128.005; -132.000;    0.000; 3.99468
 825.68;   66.995;  105.000;    0.000;-38.00526
 826.24;  -77.005;  -36.000;    0.000;-41.00520
 826.81; -109.005;  -70.000;    0.000;-39.00514
 827.38;    2.995;  -85.000;    0.000;87.99493
 827.95;  -16.005;    5.000;    0.000;-21.00501
 828.52;    0.995;  -72.000;    0.000;72.99505
 829.08;   33.995;  -53.000;    0.000;86.99511
 829.65;   12.995;  -74.000;    0.000;86.99517
 830.22;   17.995;   -8.000;    0.000;25.99523
 830.79; -138.005;  -90.000;    0.000;-48.00470
 831.36;  -27.005;  -77.000;    0.000;49.99536
 831.92;  142.995;   65.000;    0.000;77.99542
 832.49;  -63.005;  -74.000;    0.000;10.99548
 833.06;  -65.004;   -9.000;    0.000;-56.00446
 833.63;  -27.004;  -54.000;    0.000;26.99561
 834.19;  -36.004;  -85.000;    0.000;48.99567
 834.76;  -40.004;  -53.000;    0.000;12.99573
 835.33;  -62.004; -124.000;    0.000;61.99579
 835.90;  -88.004;  -76.000;    0.000;-12.00415
 836.46;  -74.004;  -92.000;    0.000;17.99592
 837.03;  -94.004;  -74.000;    0.000;-20.00402
 837.60;  -50.004;  -85.000;    0.000;34.99604
 838.17;  -65.004;  -23.000;    0.000;-42.00390
 838.73;  -18.004;  -23.000;    0.000; 4.99616
 839.30;  -39.004;   -9.000;    0.000;-30.00377
 839.87;  -19.004;    4.000;    0.000;-23.00371
 840.43;  -61.004;  -48.000;    0.000;-13.00365
 841.00;  -45.004;    2.000;    0.000;-47.00359
 841.57;  -43.004;  -49.000;    0.000; 5.99647
 842.14;  -46.003;  -79.000;    0.000;32.99653
 842.70;  -73.003;  -59.000;    0.000;-14.00340
 843.27;  -77.003;  -73.000;    0.000;-4.00334
 843.84; -104.003;  -40.000;    0.000;-64.00328
 844.40;  -98.003;  -79.000;    0.000;-19.00322
 844.97;  -75.003;  -51.000;    0.000;-24.00316
 845.54;  -77.003;  -58.000;    0.000;-19.00309
 846.10;  -94.003;  -36.000;    0.000;-58.00303
 846.67; -144.003; -103.000;    0.000;-41.00297
 847.24; -109.003;  -85.000;    0.000;-24.00291
 847.80;  -58.003;  -66.000;    0.000; 7.99715
 848.37;  -26.003;  -96.000;    0.000;69.99722
 848.94;   16.997;   33.000;    0.000;-16.00272
 849.50;   21.997;   19.000;    0.000; 2.99734
 850.07;  -51.003;  -69.000;    0.000;17.99740
 850.63;  -13.003;   24.000;    0.000;-37.00254
 851.20;  -93.002;  -85.000;    0.000;-8.00248
 851.77;  -59.002;  -61.000;    0.000; 1.99759
 852.33;   22.998;  -29.000;    0.000;51.99765
 852.90;  -65.002;  -66.000;    0.000; 0.99771
 853.47;    6.998;  -21.000;    0.000;27.99777
 854.03;  -80.002;  -94.000;    0.000;13.99783
 854.60;   23.998;  -39.000;    0.000;62.99790
 855.16;   -4.002;  -10.000;    0.000; 5.99796
 855.73;   42.998;  -22.000;    0.000;64.99802
 856.30;   59.998;   22.000;    0.000;37.99808
 856.86;  -72.002;  -58.000;    0.000;-14.00186
 857.43;   13.998;   -3.000;    0.000;16.99821
 857.99; -100.002;  -14.000;    0.000;-86.00173
 858.56; -114.002; -122.000;    0.000; 7.99833
 859.12;  -72.002;  -30.000;    0.000;-42.00161
 859.69;  -84.002;  -84.000;    0.000;-0.00155
 860.26; -121.001;  -54.000;    0.000;-67.00149
 860.82;  -16.001;  -50.000;    0.000;33.99858
 861.39;  -33.001;  -68.000;    0.000;34.99864
 861.95;  -78.001;  -48.000;    0.000;-30.00130
 862.52;   47.999;   -1.000;    0.000;48.99876
 863.08;  -34.001;  -66.000;    0.000;31.99882
 863.65;  -46.001;  -14.000;    0.000;-32.00111
 864.21;  -76.001;  -69.000;    0.000;-7.00105
 864.78;   -7.001;  -13.000;    0.000; 5.99901
 865.34;  151.999;  154.000;    0.000;-2.00093
 865.91;   14.999;  -38.000;    0.000;52.99913
 866.47;  -89.001;  -58.000;    0.000;-31.00080
 867.04;  -42.001;  -77.000;    0.000;34.99926
 867.61; -149.001; -110.000;    0.000;-39.00068
 868.17; -108.001;  -12.000;    0.000;-96.00062
 868.74; -106.001;  -60.000;    0.000;-46.00056
 869.30; -105.000;  -72.000;    0.000;-33.00050
 869.86; -119.000; -110.000;    0.000;-9.00043
 870.43; -125.000;  -72.000;    0.000;-53.00037
 870.99; -104.000; -115.000;    0.000;10.99969
 871.56;  -31.000;  -63.000;    0.000;31.99975
 872.12;  -78.000;  -65.000;    0.000;-13.00019
 872.69; -114.000; -100.000;    0.000;-14.00012
 873.25;  -66.000;  -23.000;    0.000;-43.00006
 873.82; -104.000;  -68.000;    0.000;-36.00000
 874.38;    9.000;    7.000;    0.000; 2.00000
 874.95;  -49.000;    5.000;    0.000;-54.00000
 875.51;  -23.000;  -13.000;    0.000;-10.00000
 876.08;  -73.000;  -54.000;    0.000;-19.00000
 876.64; -134.000; -117.000;    0.000;-17.00000
 877.20;  -84.000; -119.000;    0.000;35.00000
 877.77; -116.000;  -71.000;    0.000;-45.00000
 878.33;  -60.000;  -69.000;    0.000; 9.00000
 878.90;  -18.000;  -58.000;    0.000;40.00000
 879.46;  -19.000;  -83.000;    0.000;64.00000
 880.03;   16.000;   -3.000;    0.000;19.00000
 880.59;  -34.000;  -86.000;    0.000;52.00000
 881.15;  -38.000;   12.000;    0.000;-50.00000
 881.72;  -15.000;  -54.000;    0.000;39.00000
 882.28;  -85.000;    7.000;    0.000;-92.00000
 882.85;  -62.000;  -88.000;    0.000;26.00000
 883.41;  -81.000;  -32.000;    0.000;-49.00000
 883.97;  245.000;  247.000;    0.000;-2.00000
 884.54;  -23.000;  -62.000;    0.000;39.00000
 885.10; -199.000;  -57.000;    0.000;-142.00000
 885.66;   35.000;   -9.000;    0.000;44.00000
 886.23;  -63.000;  -47.000;    0.000;-16.00000
 886.79;  -79.000;  -62.000;    0.000;-17.00000
 887.36;  -82.000;   10.000;    0.000;-92.00000
 887.92; -113.000;  -94.000;    0.000;-19.00000
 888.48; -117.000; -117.000;    0.000; 0.00000
 889.05;  -67.000; -131.000;    0.000;64.00000
 889.61;  -60.000;  -40.000;    0.000;-20.00000
 890.17;  -49.000;  -54.000;    0.000; 5.00000
 890.74;  -35.000;  -50.000;    0.000;15.00000
 891.30; -104.000;  -60.000;    0.000;-44.00000
 891.86; -150.000;  -58.000;    0.000;-92.00000
 892.43; -138.000; -119.000;    0.000;-19.00000
 892.99;  -65.000;  -52.000;    0.000;-13.00000
 893.55; -109.000;  -86.000;    0.000;-23.00000
 894.11;  -30.000;  -55.000;    0.000;25.00000
 894.68;  -37.000;  -48.000;    0.000;11.00000
 895.24;   19.000;   24.000;    0.000;-5.00000
 895.80; -134.000;  -65.000;    0.000;-69.00000
 896.37;  -81.000;  -58.000;    0.000;-23.00000
 896.93;  -71.000;  -21.000;    0.000;-50.00000
 897.49;  -65.000; -109.000;    0.000;44.00000
 898.05;  -58.000;  -17.000;    0.000;-41.00000
 898.62;   65.000;   47.000;    0.000;18.00000
 899.18; -100.000;  -86.000;    0.000;-14.00000
 899.74;   84.000;   63.000;    0.000;21.00000
 900.31;  -46.000;  -12.000;    0.000;-34.00000
 900.87;  -53.000;  -63.000;    0.000;10.00000
 901.43;  -75.000; -166.000;    0.000;91.00000
 901.99; -122.000;  -66.000;    0.000;-56.00000
 902.56;  -28.000;  -22.000;    0.000;-6.00000
 903.12;   81.000;   45.000;    0.000;36.00000
 903.68;  -74.000; -107.000;    0.000;33.00000
 904.24;  -28.000;  -48.000;    0.000;20.00000
 904.80;  -41.000;   -6.000;    0.000;-35.00000
 905.37;  -76.000;  -32.000;    0.000;-44.00000
 905.93;   19.000;  -31.000;    0.000;50.00000
 906.49;  -81.000;   -2.000;    0.000;-79.00000
 907.05; -124.000; -107.000;    0.000;-17.00000
 907.61;  -83.000;  -26.000;    0.000;-57.00000
 908.18;   38.000;   25.000;    0.000;13.00000
 908.74;  -87.000;  -34.000;    0.000;-53.00000
 909.30; -166.000;  -94.000;    0.000;-72.00000
 909.86;  -54.000;  -74.000;    0.000;20.00000
 910.42; -107.000; -104.000;    0.000;-3.00000
 910.99;  -27.000;   14.000;    0.000;-41.00000
 911.55;  -93.000;  -74.000;    0.000;-19.00000
 912.11;  -43.000;  -46.000;    0.000; 3.00000
 912.67;   -9.000;  -28.000;    0.000;19.00000
 913.23;  -60.000;  -93.000;    0.000;33.00000
 913.79;  -93.000;  -38.000;    0.000;-55.00000
 914.36;   -5.000;  -26.000;    0.000;21.00000
 914.92;  -45.000;  -48.000;    0.000; 3.00000
 915.48;  -39.000;  -69.000;    0.000;30.00000
 916.04;   66.000;   66.000;    0.000; 0.00000
 916.60;  -57.000;  -74.000;    0.000;17.00000
 917.16; -102.000;  -68.000;    0.000;-34.00000
 917.72;  -63.000;  -81.000;    0.000;18.00000
 918.28; -111.000;  -56.000;    0.000;-55.00000
 918.85;    1.000;    0.000;    0.000; 1.00000
 919.41;  -38.000;  -24.000;    0.000;-14.00000
 919.97;  -97.000;  -99.000;    0.000; 2.00000
 920.53;  -91.000;  -86.000;    0.000;-5.00000
 921.09;   38.000;   65.000;    0.000;-27.00000
 921.65; -141.000;  -75.000;    0.000;-66.00000
 922.21;  -97.000;  -79.000;    0.000;-18.00000
 922.77;  -76.000;  -81.000;    0.000; 5.00000
 923.33; -100.000;  -20.000;    0.000;-80.00000
 923.89;  -45.000;  -51.000;    0.000; 6.00000
 924.45; -159.000;  -82.000;    0.000;-77.00000
 925.01;  -98.000;  -45.000;    0.000;-53.00000
 925.58;  -26.000;  -31.000;    0.000; 5.00000
 926.14; -110.000;  -59.000;    0.000;-51.00000
 926.70;  -67.000;  -66.000;    0.000;-1.00000
 927.26;   13.000;   -8.000;    0.000;21.00000
 927.82;  -45.000;  -27.000;    0.000;-18.00000
 928.38; -103.000;  -35.000;    0.000;-68.00000
 928.94; -123.000;  -46.000;    0.000;-77.00000
 929.50;  -81.000;  -32.000;    0.000;-49.00000
 930.06;  -92.000; -135.000;    0.000;43.00000
 930.62;  -86.000; -101.000;    0.000;15.00000
 931.18;   60.000;    0.000;    0.000;60.00000
 931.74; -125.000;  -92.000;    0.000;-33.00000
 932.30;   -5.000;  -83.000;    0.000;78.00000
 932.86;  -84.000;  -77.000;    0.000;-7.00000
 933.42;  -33.000;  -91.000;    0.000;58.00000
 933.98;   28.000;  -53.000;    0.000;81.00000
 934.54;  -89.000;   -9.000;    0.000;-80.00000
 935.10;  -64.000;  -91.000;    0.000;27.00000
 935.66; -110.000;  -69.000;    0.000;-41.00000
 936.22;  -48.000;  -57.000;    0.000; 9.00000
 936.78;  -74.000;  -61.000;    0.000;-13.00000
 937.34;  -40.000;  -46.000;    0.000; 6.00000
 937.90;   16.000;  -30.000;    0.000;46.00000
 938.46; -125.000;  -34.000;    0.000;-91.00000
 939.02;  -28.000;  -45.000;    0.000;17.00000
 939.58;  -67.000; -130.000;    0.000;63.00000
 940.14;  -74.000;  -54.000;    0.000;-20.00000
 940.70;   36.000;   -6.000;    0.000;42.00000
 941.25;  -71.000;  -90.000;    0.000;19.00000
 941.81;  -72.000;  -66.000;    0.000;-6.00000
 942.37;   32.000;  -62.000;    0.000;94.00000
 942.93;   51.000; -108.000;    0.000;159.00000
 943.49;   14.000;  -64.000;    0.000;78.00000
 944.05;    1.000; -102.000;    0.000;103.00000
 944.61;  130.000;    8.000;    0.000;122.00000
 945.17;   94.000;  -82.000;    0.000;176.00000
 945.73;   69.000;  -47.000;    0.000;116.00000
 946.29;   43.000;  -75.000;    0.000;118.00000
 946.85;   52.000; -114.000;    0.000;166.00000
 947.40;   39.000; -121.000;    0.000;160.00000
 947.96;  141.000;  -34.000;    0.000;175.00000
 948.52;   47.000;  -89.000;    0.000;136.00000
 949.08;  101.000;  -52.000;    0.000;153.00000
 949.64;  216.000;   26.000;    0.000;190.00000
 950.20;   67.000;  -25.000;    0.000;92.00000
 950.76;   35.000;  -50.000;    0.000;85.00000
 951.32;  -13.000;  -83.000;    0.000;70.00000
 951.87;  -89.000;  -63.000;    0.000;-26.00000
 952.43;   20.000;   12.000;    0.000; 8.00000
 952.99;  -42.000;    2.000;    0.000;-44.00000
 953.55;  -95.000;  -28.000;    0.000;-67.00000
 954.11; -120.000; -127.000;    0.000; 7.00000
 954.67;  -97.000;  -56.000;    0.000;-41.00000
 955.22; -122.000;  -53.000;    0.000;-69.00000
 955.78;  -15.000;   30.000;    0.000;-45.00000
 956.34; -101.000;  -15.000;    0.000;-86.00000
 956.90;  -56.000;  -80.000;    0.000;24.00000
 957.46; -106.000;  -89.000;    0.000;-17.00000
 958.01;   37.000;   -9.000;    0.000;46.00000
 958.57;  -33.000;  -72.000;    0.000;39.00000
 959.13;   21.000;  -48.000;    0.000;69.00000
 959.69;  -86.000;  -47.000;    0.000;-39.00000
 960.25;   -9.000;  -71.000;    0.000;62.00000
 960.80;  -71.000;  -68.000;    0.000;-3.00000
 961.36; -121.000;  -47.000;    0.000;-74.00000
 961.92; -123.000; -147.000;    0.000;24.00000
 962.48;  -71.000;  -90.000;    0.000;19.00000
 963.03;  -58.000;  -77.000;    0.000;19.00000
 963.59;  -32.000;  -29.000;    0.000;-3.00000
 964.15;  -20.000;  -99.000;    0.000;79.00000
 964.71;   10.000;  -46.000;    0.000;56.00000
 965.26;  -91.000;  -96.000;    0.000; 5.00000
 965.82;  -65.000;  -53.000;    0.000;-12.00000
 966.38;  -82.000;  -68.000;    0.000;-14.00000
 966.94;  -38.000;  -82.000;    0.000;44.00000
 967.49;  -89.000;  -82.000;    0.000;-7.00000
 968.05; -134.000; -143.000;    0.000; 9.00000
 968.61;   36.000;   56.000;    0.000;-20.00000
 969.17; -115.000;  -95.000;    0.000;-20.00000
 969.72;  -81.000; -108.000;    0.000;27.00000
 970.28;   27.000;  -64.000;    0.000;91.00000
 970.84;  -59.000;  -91.000;    0.000;32.00000
 971.39;  -52.000;  -27.000;    0.000;-25.00000
 971.95; -129.000;  -95.000;    0.000;-34.00000
 972.51;  -51.000; -107.000;    0.000;56.00000
 973.06;  -20.000;   13.000;    0.000;-33.00000
 973.62;  -22.000;  -18.000;    0.000;-4.00000
 974.18;  -58.000;  -65.000;    0.000; 7.00000
 974.73; -107.000;  -78.000;    0.000;-29.00000
 975.29;   17.000;   57.000;    0.000;-40.00000
 975.85;    8.000;  -36.000;    0.000;44.00000
 976.40;  -35.000;  -54.000;    0.000;19.00000
 976.96;  -93.000;  -81.000;    0.000;-12.00000
 977.52;   31.000;  -24.000;    0.000;55.00000
 978.07;   -8.000;  -56.000;    0.000;48.00000
 978.63;  -18.000;  -93.000;    0.000;75.00000
 979.19;   -6.000;  -22.000;    0.000;16.00000
 979.74;  -28.000;  -30.000;    0.000; 2.00000
 980.30; -129.000;  -95.000;    0.000;-34.00000
 980.85;  -16.000;  -17.000;    0.000; 1.00000
 981.41;  -57.000;  -69.000;    0.000;12.00000
 981.97;  -97.000;  -98.000;    0.000; 1.00000
 982.52;  -60.000; -104.000;    0.000;44.00000
 983.08;  -24.000;   -1.000;    0.000;-23.00000
 983.63;    2.000;   13.000;    0.000;-11.00000
 984.19;  -32.000;  -84.000;    0.000;52.00000
 984.75; -111.000;  -90.000;    0.000;-21.00000
 985.30;  -90.000; -105.000;    0.000;15.00000
 985.86;  -80.000;  -75.000;    0.000;-5.00000
 986.41;  -85.000; -131.000;    0.000;46.00000
 986.97;  -42.000; -119.000;    0.000;77.00000
 987.52;  -91.000;  -74.000;    0.000;-17.00000
 988.08;  -39.000;  -99.000;    0.000;60.00000
 988.64;  -84.000; -103.000;    0.000;19.00000
 989.19; -137.000; -112.000;    0.000;-25.00000
 989.75;   13.000;  -19.000;    0.000;32.00000
 990.30;  -72.000; -110.000;    0.000;38.00000
 990.86;  -75.000;  -57.000;    0.000;-18.00000
 991.41;  -56.000;  -66.000;    0.000;10.00000
 991.97;  -14.000;  -57.000;    0.000;43.00000
 992.52;   18.000; -112.000;    0.000;130.00000
 993.08;  -60.000;  -80.000;    0.000;20.00000
 993.63;  -52.000; -115.000;    0.000;63.00000
 994.19;  -60.000;  -76.000;    0.000;16.00000
 994.74;  -57.000; -111.000;    0.000;54.00000
 995.30;  -89.000; -125.000;    0.000;36.00000
 995.85;    0.000; -109.000;    0.000;109.00000
 996.41;  -66.000;  -47.000;    0.000;-19.00000
 996.96;  -14.000;  -65.000;    0.000;51.00000
 997.52;   54.000;   69.000;    0.000;-15.00000
 998.07;   -1.000;  -39.000;    0.000;38.00000
 998.63;  -74.000; -126.000;    0.000;52.00000
 999.18;    3.000;  -20.000;    0.000;23.00000
 999.74;  -57.000;  -88.000;    0.000;31.00000
1000.29;  -61.000; -110.000;    0.000;49.00000
1000.85;  -36.000;  -57.000;    0.000;21.00000
1001.40;  -85.000;  -42.000;    0.000;-43.00000
1001.96; -132.000;  -17.000;    0.000;-115.00000
1002.51;  -57.000;  -47.000;    0.000;-10.00000
1003.06; -134.000;  -94.000;    0.000;-40.00000
1003.62;   16.000;   21.000;    0.000;-5.00000
1004.17;  -48.000; -108.000;    0.000;60.00000
1004.73;  -82.000;  -95.000;    0.000;13.00000
1005.28;  142.000;   83.000;    0.000;59.00000
1005.83; -127.000; -104.000;    0.000;-23.00000
1006.39; -116.000; -107.000;    0.000;-9.00000
1006.94;  -80.000; -103.000;    0.000;23.00000
1007.50;  -11.000;  -39.000;    0.000;28.00000
1008.05;  -97.000;  -93.000;    0.000;-4.00000
1008.60;  -75.000;  -49.000;    0.000;-26.00000
1009.16;  -36.000;  -34.000;    0.000;-2.00000
1009.71;  -44.000;  -11.000;    0.000;-33.00000
1010.27; -110.000; -134.000;    0.000;24.00000
1010.82;  -50.000;  -90.000;    0.000;40.00000
1011.37;   -2.000;  -17.000;    0.000;15.00000
1011.93;  -56.000;    2.000;    0.000;-58.00000
1012.48;  -30.000;  -24.000;    0.000;-6.00000
1013.03; -101.000; -102.000;    0.000; 1.00000
1013.59;  -23.000;  -70.000;    0.000;47.00000
1014.14; -105.000; -116.000;    0.000;11.00000
1014.69; -100.000;  -80.000;    0.000;-20.00000
1015.25;   17.000;   81.000;    0.000;-64.00000
1015.80;  -13.000;  -40.000;    0.000;27.00000
1016.35; -109.000;  -74.000;    0.000;-35.00000
1016.91;  -85.000;  -93.000;    0.000; 8.00000
1017.46; -120.000;  -71.000;    0.000;-49.00000
1018.01;  -46.000; -120.000;    0.000;74.00000
1018.57; -108.000; -109.000;    0.000; 1.00000
1019.12; -167.000; -100.000;    0.000;-67.00000
1019.67;    0.000;  -36.000;    0.000;36.00000
1020.23;  -20.000;    0.000;    0.000;-20.00000
1020.78; -161.000;  -87.000;    0.000;-74.00000
1021.33;  -28.000;  -27.000;    0.000;-1.00000
1021.88;   -1.000;  -39.000;    0.000;38.00000
1022.44;   30.000;   27.000;    0.000; 3.00000
1022.99; -112.000;  -95.000;    0.000;-17.00000
1023.54; -107.000; -140.000;    0.000;33.00000
1024.09;  -28.000;    5.000;    0.000;-33.00000
1024.65;  -85.000;  -70.000;    0.000;-15.00000
1025.20;  -73.000;  -86.000;    0.000;13.00000
1025.75; -126.000; -112.000;    0.000;-14.00000
1026.30;  -65.000;  -23.000;    0.000;-42.00000
1026.86;  -78.000;  -82.000;    0.000; 4.00000
1027.41;  -44.000;    6.000;    0.000;-50.00000
1027.96;  -55.000;  -88.000;    0.000;33.00000
1028.51;   25.000;   27.000;    0.000;-2.00000
1029.07;  -89.000;  -72.000;    0.000;-17.00000
1029.62; -113.000;  -96.000;    0.000;-17.00000
1030.17;  -48.000;   34.000;    0.000;-82.00000
1030.72;  -25.000;  -13.000;    0.000;-12.00000
1031.27;  -86.000;  -29.000;    0.000;-57.00000
1031.83;  -56.000;  -51.000;    0.000;-5.00000
1032.38;  -13.000;   -7.000;    0.000;-6.00000
1032.93;  -34.000;  -64.000;    0.000;30.00000
1033.48; -125.000;  -55.000;    0.000;-70.00000
1034.03;  -75.000;  -92.000;    0.000;17.00000
1034.58;  -76.000;  -52.000;    0.000;-24.00000
1035.14;  -82.000;  -85.000;    0.000; 3.00000
1035.69;  -57.000;  -73.000;    0.000;16.00000
1036.24; -112.000; -115.000;    0.000; 3.00000
1036.79;  -84.000; -119.000;    0.000;35.00000
1037.34;  -78.000;  -81.000;    0.000; 3.00000
1037.89;  -71.000; -129.000;    0.000;58.00000
1038.45;  -88.000; -122.000;    0.000;34.00000
1039.00;  -72.000;  -28.000;    0.000;-44.00000
1039.55;  -68.000;  -61.000;    0.000;-7.00000
1040.10;    7.000;   11.000;    0.000;-4.00000
1040.65; -159.000;  -96.000;    0.000;-63.00000
1041.20;  -88.000; -102.000;    0.000;14.00000
1041.75;  -98.000; -103.000;    0.000; 5.00000
1042.30;  -48.000; -105.000;    0.000;57.00000
1042.85; -112.000;  -86.000;    0.000;-26.00000
1043.41;  -68.000;  -33.000;    0.000;-35.00000
1043.96;  -86.000;  -98.000;    0.000;12.00000
1044.51;  -31.000;  -88.000;    0.000;57.00000
1045.06;   -6.000;   20.000;    0.000;-26.00000
1045.61;  -36.000;  -54.000;    0.000;18.00000
1046.16;  -30.000;  -38.000;    0.000; 8.00000
1046.71;  -71.000;  -68.000;    0.000;-3.00000
1047.26;  -47.000;  -75.000;    0.000;28.00000
1047.81; -125.000; -101.000;    0.000;-24.00000
1048.36; -102.000; -128.000;    0.000;26.00000
1048.91;  857.000;  740.000;    0.000;117.00000
1049.46;   77.000;   71.000;    0.000; 6.00000
1050.01;  -66.000; -100.000;    0.000;34.00000
1050.56;  -94.000; -144.000;    0.000;50.00000
1051.11;  -15.000;    5.000;    0.000;-20.00000
1051.66; -115.000;  -89.000;    0.000;-26.00000
1052.21;  -28.000;  -67.000;    0.000;39.00000
1052.76;  -13.000;  -79.000;    0.000;66.00000
1053.31;  -33.000;  -53.000;    0.000;20.00000
1053.86;  -83.000;  -15.000;    0.000;-68.00000
1054.41;  -56.000;  -45.000;    0.000;-11.00000
1054.96;  -90.000;  -63.000;    0.000;-27.00000
1055.51;  181.000;  140.000;    0.000;41.00000
1056.06;  -56.000;  -78.000;    0.000;22.00000
1056.61;   58.000;   66.000;    0.000;-8.00000
1057.16;  -72.000;  -48.000;    0.000;-24.00000
1057.71;  -83.000; -120.000;    0.000;37.00000
1058.26;  -85.000; -105.000;    0.000;20.00000
1058.81;   -8.000;   12.000;    0.000;-20.00000
1059.36; -113.000; -114.000;    0.000; 1.00000
1059.91;  -50.000;  -47.000;    0.000;-3.00000
1060.46;  -13.000;  -67.000;    0.000;54.00000
1061.01;  -99.000; -121.000;    0.000;22.00000
1061.56; -138.000;  -93.000;    0.000;-45.00000
1062.11;  -29.000;  -24.000;    0.000;-5.00000
1062.66; -145.000;  -39.000;    0.000;-106.00000
1063.21; -103.000; -140.000;    0.000;37.00000
1063.76;  -87.000;  -42.000;    0.000;-45.00000
1064.31;  -63.000;  -71.000;    0.000; 8.00000
1064.86; -102.000;  -97.000;    0.000;-5.00000
1065.40;   27.000;   -6.000;    0.000;33.00000
1065.95;    7.000;  -21.000;    0.000;28.00000
1066.50;  -70.000; -100.000;    0.000;30.00000
1067.05;  -71.000;  -91.000;    0.000;20.00000
1067.60;   29.000;   27.000;    0.000; 2.00000
1068.15;  -86.000;  -46.000;    0.000;-40.00000
1068.70;  -77.000;  -75.000;    0.000;-2.00000
1069.25;  -19.000;  -79.000;    0.000;60.00000
1069.79;  -66.000;  -54.000;    0.000;-12.00000
1070.34;  -89.000; -116.000;    0.000;27.00000
1070.89;  -29.000;   -8.000;    0.000;-21.00000
1071.44;  -70.000;  -61.000;    0.000;-9.00000
1071.99;   44.000;   96.000;    0.000;-52.00000
1072.54; -119.000;  -88.000;    0.000;-31.00000
1073.09;  -61.000;  -19.000;    0.000;-42.00000
1073.63;  -82.000;  -43.000;    0.000;-39.00000
1074.18;  -83.000;  -17.000;    0.000;-66.00000
1074.73; -122.000;  -79.000;    0.000;-43.00000
1075.28;    8.000;    1.000;    0.000; 7.00000
1075.83;  -90.000;  -89.000;    0.000;-1.00000
1076.38; -105.000; -122.000;    0.000;17.00000
1076.92;  -69.000;  -90.000;    0.000;21.00000
1077.47;  -25.000;  -28.000;    0.000; 3.00000
1078.02;   34.000;   45.000;    0.000;-11.00000
1078.57;  -89.000; -107.000;    0.000;18.00000
1079.11; -122.000;  -50.000;    0.000;-72.00000
1079.66;  -73.000;  -86.000;    0.000;13.00000
1080.21;  -42.000;  -73.000;    0.000;31.00000
1080.76;   31.000;  -18.000;    0.000;49.00000
1081.31; -100.000; -103.000;    0.000; 3.00000
1081.85;  -77.000;  -76.000;    0.000;-1.00000
1082.40;  -28.000;  -10.000;    0.000;-18.00000
1082.95;  -93.000; -109.000;    0.000;16.00000
1083.50; -102.000;  -20.000;    0.000;-82.00000
1084.04; -130.000;  -68.000;    0.000;-62.00000
1084.59;  -66.000; -107.000;    0.000;41.00000
1085.14;  -90.000; -104.000;    0.000;14.00000
1085.69;  -92.000;  -32.000;    0.000;-60.00000
1086.23;  -31.000;   -9.000;    0.000;-22.00000
1086.78;  -19.000;  -41.000;    0.000;22.00000
1087.33;  -19.000;  -34.000;    0.000;15.00000
1087.87;  -69.000;  -93.000;    0.000;24.00000
1088.42;    6.000;  -27.000;    0.000;33.00000
1088.97; -115.000;  -88.000;    0.000;-27.00000
1089.52;  -14.000;  -75.000;    0.000;61.00000
1090.06;  -55.000; -126.000;    0.000;71.00000
1090.61;  -95.000;  -45.000;    0.000;-50.00000
1091.16;  -87.000;  -85.000;    0.000;-2.00000
1091.70;  -50.000;  -83.000;    0.000;33.00000
1092.25; -111.000;  -79.000;    0.000;-32.00000
1092.80;  -42.000;  -80.000;    0.000;38.00000
1093.34;  -61.000;  -50.000;    0.000;-11.00000
1093.89; -106.000;  -51.000;    0.000;-55.00000
1094.44;   -9.000;  -39.000;    0.000;30.00000
1094.98;   24.000;  -32.000;    0.000;56.00000
1095.53;   -3.000;  -67.000;    0.000;64.00000
1096.07;  -15.000;  -38.000;    0.000;23.00000
1096.62;  -55.000;  -75.000;    0.000;20.00000
1097.17;   -5.000;   -4.000;    0.000;-1.00000
1097.71; -116.000;  -23.000;    0.000;-93.00000
1098.26; -104.000; -132.000;    0.000;28.00000
1098.81;  -79.000;  -34.000;    0.000;-45.00000
1099.35;  -14.000; -102.000;    0.000;88.00000
1099.90;  -26.000;  -57.000;    0.000;31.00000
1100.44; -102.000; -172.000;    0.000;70.00000

