
Integration time [ms]: 1000.000
Averaging Nr. [scans]: 1
Smoothing Nr. [pixels]: 0
Data measured with spectrometer [name]: 1701237U1
Wave   ;Sample   ;Dark     ;Reference;Scope Corrected for Dark
[nm]   ;[counts] ;[counts] ;[counts] ;[counts] 

 173.88;  -51.998;  -33.000;    0.000;-18.99776
 174.48;  -47.999;  -46.000;    0.000;-1.99854
 175.09;  -61.999;  -17.000;    0.000;-44.99946
 175.69;   39.001;    9.000;    0.000;30.00141
 176.30;   17.002;   12.000;    0.000; 5.00232
 176.90;  -55.999;  -29.000;    0.000;-26.99920
 177.51;  -32.000;   -4.000;    0.000;-27.99951
 178.11;    1.002;   27.000;    0.000;-25.99835
 178.72;    1.001;  -75.000;    0.000;76.00092
 179.32;  -58.998;  -41.000;    0.000;-17.99809
 179.93;  -61.998;  -16.000;    0.000;-45.99818
 180.54;  -15.999;  -23.000;    0.000; 7.00052
 181.14;  -35.998;   46.000;    0.000;-81.99773
 181.75;    5.001;   34.000;    0.000;-28.99935
 182.35;  -90.000;  -62.000;    0.000;-27.99953
 182.96;   -4.999;   69.000;    0.000;-73.99900
 183.56;  -49.998;  -51.000;    0.000; 1.00243
 184.17;  122.001;   90.000;    0.000;32.00133
 184.77;   36.000;  -12.000;    0.000;48.00050
 185.38;  -56.999;   -8.000;    0.000;-48.99851
 185.98;   57.002;  -19.000;    0.000;76.00156
 186.59;   -2.999;   28.000;    0.000;-30.99910
 187.19;  -24.999;  -46.000;    0.000;21.00125
 187.80;   36.002;    3.000;    0.000;33.00212
 188.40;    3.003;  -37.000;    0.000;40.00321
 189.01;    9.002;  -12.000;    0.000;21.00156
 189.61;  -45.999;  -25.000;    0.000;-20.99899
 190.21; -115.998;  -74.000;    0.000;-41.99786
 190.82;  -77.998;  -22.000;    0.000;-55.99810
 191.42;  -23.998;  -25.000;    0.000; 1.00242
 192.03;  -25.997;   25.000;    0.000;-50.99745
 192.63;  -68.997;  -45.000;    0.000;-23.99713
 193.24;   34.001;   16.000;    0.000;18.00071
 193.84;  -62.997;  -50.000;    0.000;-12.99655
 194.45;  -43.997;  -26.000;    0.000;-17.99709
 195.05;   49.002;  -30.000;    0.000;79.00191
 195.66;  -42.997;   -8.000;    0.000;-34.99732
 196.26;  -26.996;   23.000;    0.000;-49.99644
 196.87;  -17.997;   18.000;    0.000;-35.99687
 197.47;  -53.997;  -52.000;    0.000;-1.99745
 198.07;  -53.997; -122.000;    0.000;68.00346
 198.68; -104.996;  -37.000;    0.000;-67.99634
 199.28;   -7.998;  -42.000;    0.000;34.00214
 199.89;  -40.995;    4.000;    0.000;-44.99545
 200.49;   17.003;    7.000;    0.000;10.00348
 201.10;   61.003;   16.000;    0.000;45.00272
 201.70;   -0.996;   46.000;    0.000;-46.99625
 202.31;  -85.998;  -50.000;    0.000;-35.99836
 202.91;    1.002;   31.000;    0.000;-29.99832
 203.51;  -16.997;   -5.000;    0.000;-11.99722
 204.12;  -10.000;   15.000;    0.000;-24.99961
 204.72;   56.001;   34.000;    0.000;22.00100
 205.33;  -10.998;  -26.000;    0.000;15.00165
 205.93;  -52.998;  -11.000;    0.000;-41.99797
 206.53;  -26.998; -100.000;    0.000;73.00227
 207.14;  -78.998;  -51.000;    0.000;-27.99781
 207.74;   -5.998;  -34.000;    0.000;28.00208
 208.35;  -14.997;  -78.000;    0.000;63.00257
 208.95;   -2.998;    3.000;    0.000;-5.99785
 209.55;  167.002;  177.000;    0.000;-9.99781
 210.16;  -65.997;  -79.000;    0.000;13.00256
 210.76;    3.002;   28.000;    0.000;-24.99758
 211.37;  -73.998;  -54.000;    0.000;-19.99768
 211.97;  -40.998;  -15.000;    0.000;-25.99850
 212.57;  -26.997;  -33.000;    0.000; 6.00339
 213.18;  -68.997;  -66.000;    0.000;-2.99728
 213.78;  -44.997;  -21.000;    0.000;-23.99694
 214.38;  151.002;  102.000;    0.000;49.00213
 214.99;    5.003;   -9.000;    0.000;14.00272
 215.59;   -4.997;  -53.000;    0.000;48.00320
 216.20;  -18.996;  -78.000;    0.000;59.00351
 216.80;  -43.997;  -39.000;    0.000;-4.99668
 217.40;  -32.997;    0.000;    0.000;-32.99743
 218.01;   -2.996;  -13.000;    0.000;10.00373
 218.61;  -76.997;  -50.000;    0.000;-26.99700
 219.21;  -76.998;  -44.000;    0.000;-32.99783
 219.82;  118.002;   59.000;    0.000;59.00228
 220.42;  -35.998;  -77.000;    0.000;41.00238
 221.02;  -47.996;  -40.000;    0.000;-7.99560
 221.63;  -55.995;  -46.000;    0.000;-9.99522
 222.23;  -74.997;  -91.000;    0.000;16.00320
 222.83;   35.002;  -45.000;    0.000;80.00240
 223.44;  -81.998;  -82.000;    0.000; 0.00165
 224.04;    2.005;  -39.000;    0.000;41.00484
 224.64;  -71.996;  -60.000;    0.000;-11.99640
 225.25;  -32.998;   14.000;    0.000;-46.99765
 225.85;  -28.998;  -50.000;    0.000;21.00186
 226.45;  -48.997;  -12.000;    0.000;-36.99679
 227.06;  125.003;   77.000;    0.000;48.00269
 227.66;   62.002;   79.000;    0.000;-16.99776
 228.26;  -16.997;  -12.000;    0.000;-4.99706
 228.87;  -11.997;  -34.000;    0.000;22.00299
 229.47;   31.003;   37.000;    0.000;-5.99746
 230.07;   13.003;  -24.000;    0.000;37.00317
 230.68;    1.001;   88.000;    0.000;-86.99855
 231.28;  -19.997;   -7.000;    0.000;-12.99661
 231.88;  108.003;  108.000;    0.000; 0.00306
 232.48;  -11.998;    8.000;    0.000;-19.99830
 233.09;  -17.998;    7.000;    0.000;-24.99805
 233.69;  -44.998;  -79.000;    0.000;34.00246
 234.29;   42.002;   37.000;    0.000; 5.00240
 234.90;  -27.997;   35.000;    0.000;-62.99668
 235.50;   -1.995;  -67.000;    0.000;65.00493
 236.10;  -50.998;  -81.000;    0.000;30.00232
 236.70;  -50.997;   21.000;    0.000;-71.99685
 237.31;  -56.997;  -38.000;    0.000;-18.99653
 237.91;  -77.997;    4.000;    0.000;-81.99666
 238.51; -108.998;  -64.000;    0.000;-44.99802
 239.11;  -18.000;  -52.000;    0.000;34.00018
 239.72;  -86.996;  -64.000;    0.000;-22.99622
 240.32;  -56.999;  -82.000;    0.000;25.00118
 240.92;   -6.997;   25.000;    0.000;-31.99683
 241.53;   25.004;   21.000;    0.000; 4.00377
 242.13;   49.003;   29.000;    0.000;20.00280
 242.73;   -9.998;   13.000;    0.000;-22.99772
 243.33;   -9.999;  -48.000;    0.000;38.00076
 243.93;   26.003;  -41.000;    0.000;67.00336
 244.54;  -44.997;  -46.000;    0.000; 1.00254
 245.14;  -31.997;  -35.000;    0.000; 3.00278
 245.74;   41.003;   44.000;    0.000;-2.99676
 246.34;  -26.997;  -11.000;    0.000;-15.99700
 246.95;  -34.996;  -79.000;    0.000;44.00351
 247.55;  -82.997;  -76.000;    0.000;-6.99698
 248.15;  -31.996;  -58.000;    0.000;26.00423
 248.75;   32.002;   11.000;    0.000;21.00217
 249.36;  -10.996;  -60.000;    0.000;49.00420
 249.96;  -41.998;  -23.000;    0.000;-18.99807
 250.56;    3.003;  -15.000;    0.000;18.00302
 251.16;  -13.998;  -40.000;    0.000;26.00233
 251.76;    2.003;    3.000;    0.000;-0.99711
 252.37;   -7.998;   35.000;    0.000;-42.99796
 252.97;  -54.997;  -12.000;    0.000;-42.99722
 253.57;  -46.997;  -13.000;    0.000;-33.99746
 254.17;    9.003;   45.000;    0.000;-35.99658
 254.77;   29.002;    0.000;    0.000;29.00210
 255.38;  -61.997;  -69.000;    0.000; 7.00344
 255.98; -101.999;   -9.000;    0.000;-92.99908
 256.58;   59.002;   43.000;    0.000;16.00209
 257.18;  -89.997;  -27.000;    0.000;-62.99725
 257.78;  -36.997;  -35.000;    0.000;-1.99737
 258.38;  -22.997;  -24.000;    0.000; 1.00257
 258.99;  -78.998;  -47.000;    0.000;-31.99826
 259.59;  -16.998;  -18.000;    0.000; 1.00234
 260.19;  -48.997;  -38.000;    0.000;-10.99686
 260.79;  -30.997;   37.000;    0.000;-67.99694
 261.39;   69.003;  113.000;    0.000;-43.99657
 261.99;  -91.996;  -51.000;    0.000;-40.99641
 262.60;  -59.997;  -68.000;    0.000; 8.00340
 263.20;  -74.998; -102.000;    0.000;27.00161
 263.80;  -94.995;  -56.000;    0.000;-38.99536
 264.40;  -73.997;  -95.000;    0.000;21.00296
 265.00;    2.003;   16.000;    0.000;-13.99742
 265.60;  -93.998;  -19.000;    0.000;-74.99768
 266.20;  -58.998;   12.000;    0.000;-70.99804
 266.81;  -19.998;  -17.000;    0.000;-2.99761
 267.41;  -88.997;   -8.000;    0.000;-80.99672
 268.01;   85.002;   69.000;    0.000;16.00187
 268.61;  -40.997;  -82.000;    0.000;41.00339
 269.21;  -69.996;  -87.000;    0.000;17.00353
 269.81;    2.002;   -9.000;    0.000;11.00156
 270.41;    3.003;   13.000;    0.000;-9.99747
 271.01;  -12.997;  -36.000;    0.000;23.00310
 271.62;  -12.998;  -24.000;    0.000;11.00175
 272.22;  -10.998;  -78.000;    0.000;67.00201
 272.82;   21.003;   12.000;    0.000; 9.00293
 273.42;   18.003;   18.000;    0.000; 0.00285
 274.02;  -70.998;  -53.000;    0.000;-17.99764
 274.62;    2.004;  -69.000;    0.000;71.00389
 275.22; -105.998;  -62.000;    0.000;-43.99806
 275.82;  -18.997;  -49.000;    0.000;30.00334
 276.42;  -94.997;  -64.000;    0.000;-30.99674
 277.02;   -8.998; -101.000;    0.000;92.00190
 277.63;  -34.997;   52.000;    0.000;-86.99691
 278.23;   11.003;  -42.000;    0.000;53.00307
 278.83;   66.003;    8.000;    0.000;58.00344
 279.43;   69.003;   63.000;    0.000; 6.00332
 280.03;  -34.999;  -18.000;    0.000;-16.99898
 280.63;  -80.997;  -65.000;    0.000;-15.99716
 281.23;   53.003;   52.000;    0.000; 1.00274
 281.83;  -62.996;  -33.000;    0.000;-29.99618
 282.43; 2240.003; 2084.000;    0.000;156.00286
 283.03;   51.002;   68.000;    0.000;-16.99755
 283.63;  -42.997;  -34.000;    0.000;-8.99696
 284.23;  -28.997;  -37.000;    0.000; 8.00348
 284.83;  -53.996;   -4.000;    0.000;-49.99646
 285.43;   46.002;    1.000;    0.000;45.00248
 286.03;  -60.999;  -55.000;    0.000;-5.99853
 286.63;  -46.997;  -42.000;    0.000;-4.99694
 287.23;  -42.997;  -76.000;    0.000;33.00252
 287.84;  -48.998;  -33.000;    0.000;-15.99794
 288.44;  -32.998;  -43.000;    0.000;10.00228
 289.04;  -71.998;  -58.000;    0.000;-13.99829
 289.64;  -31.998;  -20.000;    0.000;-11.99774
 290.24;  -76.995;   -7.000;    0.000;-69.99487
 290.84;  -58.999;  -64.000;    0.000; 5.00066
 291.44;  -25.998;   26.000;    0.000;-51.99839
 292.04;  -43.999;    0.000;    0.000;-43.99894
 292.64;   -3.998;  -17.000;    0.000;13.00209
 293.24;  -48.998;   17.000;    0.000;-65.99845
 293.84;   -8.997; -109.000;    0.000;100.00318
 294.44;   -2.997;  -20.000;    0.000;17.00303
 295.04;  -55.998;  -59.000;    0.000; 3.00211
 295.64;  -57.999;  -60.000;    0.000; 2.00124
 296.24;  -37.999;  -40.000;    0.000; 2.00129
 296.84;  -94.998;  -14.000;    0.000;-80.99829
 297.44;  -82.997;  -85.000;    0.000; 2.00259
 298.04; -123.999;  -43.000;    0.000;-80.99937
 298.64;  -56.999;  -65.000;    0.000; 8.00138
 299.24;  -30.997;  -15.000;    0.000;-15.99707
 299.84;   33.001;   10.000;    0.000;23.00139
 300.44;   32.002;  -38.000;    0.000;70.00221
 301.04;  -51.999;  -16.000;    0.000;-35.99914
 301.64;  -32.997;  -26.000;    0.000;-6.99689
 302.24;  -42.997;  -62.000;    0.000;19.00264
 302.83;  -77.999;  -40.000;    0.000;-37.99928
 303.43;  -75.997;  -30.000;    0.000;-45.99705
 304.03;  -57.996;  -97.000;    0.000;39.00368
 304.63;  -71.998;  -10.000;    0.000;-61.99809
 305.23;  -81.998;  -22.000;    0.000;-59.99781
 305.83;  -46.998; -109.000;    0.000;62.00243
 306.43;    2.002;  -82.000;    0.000;84.00248
 307.03;   -2.997;    7.000;    0.000;-9.99699
 307.63;  -33.998;   12.000;    0.000;-45.99759
 308.23;   35.003;   62.000;    0.000;-26.99712
 308.83;   32.003;  -12.000;    0.000;44.00312
 309.43;  -80.996;   -8.000;    0.000;-72.99608
 310.03;  -37.996;  -64.000;    0.000;26.00410
 310.63;   17.003;  -45.000;    0.000;62.00348
 311.23; -110.996;    8.000;    0.000;-118.99581
 311.83;  -29.997;  -15.000;    0.000;-14.99748
 312.43;  -94.998;   13.000;    0.000;-107.99827
 313.02;    3.003;    5.000;    0.000;-1.99674
 313.62;  -97.998;  -58.000;    0.000;-39.99776
 314.22;   -6.997;  -13.000;    0.000; 6.00265
 314.82;    7.003;   61.000;    0.000;-53.99666
 315.42;   11.004;   36.000;    0.000;-24.99596
 316.02;   -2.997;   -7.000;    0.000; 4.00344
 316.62;  -40.995;  -24.000;    0.000;-16.99539
 317.22;  -29.996;  -92.000;    0.000;62.00417
 317.82;  -31.996;  -50.000;    0.000;18.00377
 318.42;  285.002;  249.000;    0.000;36.00226
 319.01;  -58.996;  -62.000;    0.000; 3.00388
 319.61;  -14.996;    1.000;    0.000;-15.99581
 320.21;  -66.996;  -35.000;    0.000;-31.99619
 320.81;  -29.995;  -28.000;    0.000;-1.99462
 321.41;   23.002;   44.000;    0.000;-20.99757
 322.01;  -95.997;  -88.000;    0.000;-7.99661
 322.61;  -64.995;  -28.000;    0.000;-36.99512
 323.21;  -59.996;  -89.000;    0.000;29.00407
 323.80;  -60.996;  -97.000;    0.000;36.00389
 324.40;  -76.994;  -59.000;    0.000;-17.99405
 325.00;  -61.995; -107.000;    0.000;45.00506
 325.60;  -66.995;  -35.000;    0.000;-31.99505
 326.20;  -93.996;  -35.000;    0.000;-58.99552
 326.80;  -96.995; -100.000;    0.000; 3.00514
 327.40;  -31.994;  -32.000;    0.000; 0.00621
 327.99;   13.008;  -29.000;    0.000;42.00764
 328.59;  -20.992;  -38.000;    0.000;17.00797
 329.19;  449.009;  305.000;    0.000;144.00880
 329.79;  -59.991;   19.000;    0.000;-78.99135
 330.39;   52.009;   73.000;    0.000;-20.99085
 330.99;  -26.991;    5.000;    0.000;-31.99133
 331.58;  -48.990;  -52.000;    0.000; 3.00993
 332.18;  -90.989;  -58.000;    0.000;-32.98891
 332.78;   74.011;   34.000;    0.000;40.01142
 333.38;   64.013;   66.000;    0.000;-1.98728
 333.98;  -81.988;  -73.000;    0.000;-8.98807
 334.57;   10.013;   -5.000;    0.000;15.01252
 335.17;  -75.988;  -62.000;    0.000;-13.98818
 335.77;   23.011;   28.000;    0.000;-4.98875
 336.37;  106.012;  122.000;    0.000;-15.98755
 336.97;  -34.990;  -45.000;    0.000;10.01026
 337.56;    9.011;  -84.000;    0.000;93.01085
 338.16;   -7.990;  -12.000;    0.000; 4.01036
 338.76;   47.008;   17.000;    0.000;30.00827
 339.36;    5.009;  -66.000;    0.000;71.00928
 339.96;   22.009;   26.000;    0.000;-3.99119
 340.55;  -18.991;   11.000;    0.000;-29.99131
 341.15;  -19.991;  -31.000;    0.000;11.00885
 341.75;    4.010;   58.000;    0.000;-53.98990
 342.35;  -73.990;  -92.000;    0.000;18.01017
 342.94;   -6.987;   74.000;    0.000;-80.98727
 343.54;  -69.989;    6.000;    0.000;-75.98917
 344.14;  -51.989;  -74.000;    0.000;22.01103
 344.74;   -7.988;   -4.000;    0.000;-3.98810
 345.33;   -8.990;   25.000;    0.000;-33.98957
 345.93;   -5.990;   -4.000;    0.000;-1.98961
 346.53;  -12.991;  -50.000;    0.000;37.00926
 347.13;   10.010;  -44.000;    0.000;54.00975
 347.72;  -65.989;  -39.000;    0.000;-26.98879
 348.32;   -8.990;  -35.000;    0.000;26.00950
 348.92;   -8.990;   17.000;    0.000;-25.98988
 349.52;  -20.990;  -58.000;    0.000;37.01044
 350.11;   19.011;   81.000;    0.000;-61.98940
 350.71;  -12.990;  -35.000;    0.000;22.00966
 351.31;   -7.991;  -22.000;    0.000;14.00920
 351.91;   15.009;  -95.000;    0.000;110.00931
 352.50;  -11.991;  -34.000;    0.000;22.00945
 353.10;  -26.990;   -9.000;    0.000;-17.99028
 353.70;   -5.992;  -52.000;    0.000;46.00825
 354.29;  364.010;  362.000;    0.000; 2.00984
 354.89;  -15.989;  -56.000;    0.000;40.01109
 355.49;  -45.991;  -92.000;    0.000;46.00853
 356.09;   27.011;   13.000;    0.000;14.01072
 356.68;  -26.991;  -59.000;    0.000;32.00939
 357.28;  -75.989;  -46.000;    0.000;-29.98861
 357.88;   16.011;  -53.000;    0.000;69.01113
 358.47;  -36.990;  -81.000;    0.000;44.00999
 359.07;  -26.991;   51.000;    0.000;-77.99062
 359.67;  -26.990;  -42.000;    0.000;15.00958
 360.26;  -15.990;  -26.000;    0.000;10.00973
 360.86;   -5.989;   -7.000;    0.000; 1.01052
 361.46;  -54.992;    6.000;    0.000;-60.99152
 362.05;  -24.990;    1.000;    0.000;-25.98952
 362.65;  -25.991;  -40.000;    0.000;14.00862
 363.25; -123.991;  -50.000;    0.000;-73.99137
 363.84;  -50.991;   -1.000;    0.000;-49.99148
 364.44;  -48.991;    0.000;    0.000;-48.99081
 365.04;  -58.991;  -21.000;    0.000;-37.99068
 365.63;  -88.991;  -71.000;    0.000;-17.99095
 366.23;  -25.992;  -16.000;    0.000;-9.99154
 366.83;  -54.991;  -53.000;    0.000;-1.99097
 367.42;  -68.990;  -95.000;    0.000;26.00999
 368.02;  -70.991; -107.000;    0.000;36.00909
 368.62;   -8.990;   33.000;    0.000;-41.98981
 369.21;   21.010;    3.000;    0.000;18.01002
 369.81;  230.010;  192.000;    0.000;38.00980
 370.41;  -43.993;  -42.000;    0.000;-1.99263
 371.00;  -57.989;  -23.000;    0.000;-34.98881
 371.60;   22.011;  -24.000;    0.000;46.01077
 372.19;  -45.990;  -20.000;    0.000;-25.99026
 372.79; -112.992;  -29.000;    0.000;-83.99168
 373.39;   10.009;    2.000;    0.000; 8.00894
 373.98;  -28.990;  -16.000;    0.000;-12.98981
 374.58;  -26.991;   37.000;    0.000;-63.99065
 375.17;    5.012;  -37.000;    0.000;42.01181
 375.77;   59.010;   34.000;    0.000;25.01024
 376.37;  -58.990;  -56.000;    0.000;-2.98959
 376.96;    3.010;   -3.000;    0.000; 6.01022
 377.56;   -0.991;   -8.000;    0.000; 7.00917
 378.15;  -49.991;  -24.000;    0.000;-25.99059
 378.75;    2.010;  -24.000;    0.000;26.01029
 379.35;  -27.990;  -23.000;    0.000;-4.98994
 379.94;    4.011;  -18.000;    0.000;22.01062
 380.54;  -30.989;  -33.000;    0.000; 2.01102
 381.13;  -70.990;  -35.000;    0.000;-35.98969
 381.73;    7.009;  -63.000;    0.000;70.00855
 382.32;  -49.992;  -68.000;    0.000;18.00785
 382.92;  -49.990;  -78.000;    0.000;28.01010
 383.52;  -72.991;  -47.000;    0.000;-25.99058
 384.11;  -29.990;   -3.000;    0.000;-26.98985
 384.71;  -13.989;    4.000;    0.000;-17.98893
 385.30;  -46.989;  -25.000;    0.000;-21.98929
 385.90;   27.010;   20.000;    0.000; 7.01002
 386.49;  -64.989;  -25.000;    0.000;-39.98911
 387.09;   51.011;   48.000;    0.000; 3.01129
 387.68;  -20.990;   13.000;    0.000;-33.99034
 388.28;  -74.990; -103.000;    0.000;28.00975
 388.87;  245.008;  171.000;    0.000;74.00841
 389.47;  -15.989;  -41.000;    0.000;25.01093
 390.07;   19.010;  -11.000;    0.000;30.01010
 390.66;    4.009;  -38.000;    0.000;42.00930
 391.26;  -25.989;  -43.000;    0.000;17.01061
 391.85;  -58.990;  -41.000;    0.000;-17.98978
 392.45;  -45.990;  -16.000;    0.000;-29.98955
 393.04;  -43.991;   -6.000;    0.000;-37.99109
 393.64;  -47.991;  -90.000;    0.000;42.00936
 394.23;  -32.990;   -6.000;    0.000;-26.98999
 394.83;  -47.991;  -38.000;    0.000;-9.99065
 395.42;   67.012;    9.000;    0.000;58.01166
 396.02;   50.009;    4.000;    0.000;46.00908
 396.61;  -67.989;  -70.000;    0.000; 2.01119
 397.21;  -52.990;   12.000;    0.000;-64.98992
 397.80;11538.010;10838.000;    0.000;700.00982
 398.40;   79.010;   49.000;    0.000;30.01005
 398.99;   43.010;  -25.000;    0.000;68.00999
 399.59;  -45.989;    6.000;    0.000;-51.98913
 400.18;  -49.990;  -27.000;    0.000;-22.99014
 400.78;  -58.990;  -36.000;    0.000;-22.99030
 401.37;  -45.992;  -24.000;    0.000;-21.99153
 401.96;  -16.990;  -38.000;    0.000;21.01040
 402.56;  -52.990;  -72.000;    0.000;19.00970
 403.15;  -28.990;  -21.000;    0.000;-7.99018
 403.75;  -14.991;   51.000;    0.000;-65.99105
 404.34;  -30.990;   -3.000;    0.000;-27.98971
 404.94;  -65.990;  -60.000;    0.000;-5.98994
 405.53;  -62.989; -133.000;    0.000;70.01054
 406.13;  -43.989;  -27.000;    0.000;-16.98925
 406.72;  -31.991;  -42.000;    0.000;10.00871
 407.32;  -72.990;  -46.000;    0.000;-26.98999
 407.91;   47.010;  -31.000;    0.000;78.00969
 408.50;  -54.992;  -49.000;    0.000;-5.99189
 409.10;   16.010;  -61.000;    0.000;77.00968
 409.69;   -9.991;   36.000;    0.000;-45.99115
 410.29;  -98.991;  -50.000;    0.000;-48.99093
 410.88;  -41.990;  -26.000;    0.000;-15.99039
 411.47; -127.991;  -70.000;    0.000;-57.99101
 412.07;  -79.991;  -45.000;    0.000;-34.99099
 412.66;  -68.991;  -15.000;    0.000;-53.99091
 413.26;  -18.991;  -70.000;    0.000;51.00859
 413.85; -108.992;  -76.000;    0.000;-32.99158
 414.45;  -37.990;  114.000;    0.000;-151.99047
 415.04;  -45.991;  -72.000;    0.000;26.00852
 415.63;   18.010;   24.000;    0.000;-5.99046
 416.23;   38.010;  -50.000;    0.000;88.00956
 416.82;   50.010;  -35.000;    0.000;85.00989
 417.41;  -28.992;   -4.000;    0.000;-24.99203
 418.01;  -86.991;  -43.000;    0.000;-43.99068
 418.60;   21.010; -105.000;    0.000;126.00998
 419.20;  -62.991;    6.000;    0.000;-68.99104
 419.79;  -54.992;   -5.000;    0.000;-49.99157
 420.38;  -73.991;  -41.000;    0.000;-32.99121
 420.98; -103.992;  -81.000;    0.000;-22.99159
 421.57;  -40.991;  -67.000;    0.000;26.00914
 422.16;  -81.992;  -32.000;    0.000;-49.99213
 422.76;  -70.992;  -65.000;    0.000;-5.99222
 423.35; -110.991;  -70.000;    0.000;-40.99126
 423.94;   80.008;   79.000;    0.000; 1.00798
 424.54;  -58.992;   -5.000;    0.000;-53.99243
 425.13;   49.009;   53.000;    0.000;-3.99056
 425.73;   38.008;   14.000;    0.000;24.00827
 426.32;  -16.991;  -36.000;    0.000;19.00881
 426.91;   20.007;   -4.000;    0.000;24.00747
 427.51;  -18.993;  121.000;    0.000;-139.99293
 428.10;   86.008;   51.000;    0.000;35.00784
 428.69;  -98.992;  -28.000;    0.000;-70.99209
 429.28;  -76.991;  -59.000;    0.000;-17.99061
 429.88;  -53.991;  -39.000;    0.000;-14.99140
 430.47;  -25.993;   -3.000;    0.000;-22.99287
 431.06;   -6.992;   15.000;    0.000;-21.99214
 431.66;   -7.993;  -27.000;    0.000;19.00747
 432.25;  -81.992;  -82.000;    0.000; 0.00785
 432.84; -142.993;  -63.000;    0.000;-79.99316
 433.44;  -68.991;   -6.000;    0.000;-62.99126
 434.03; -103.993;  -76.000;    0.000;-27.99310
 434.62;  -21.992;   36.000;    0.000;-57.99221
 435.22;  -16.994;   40.000;    0.000;-56.99430
 435.81;  -20.993;   -6.000;    0.000;-14.99256
 436.40;  -56.993;  -40.000;    0.000;-16.99347
 436.99;  -75.992;  -61.000;    0.000;-14.99223
 437.59;  -42.993;  -33.000;    0.000;-9.99257
 438.18;  -59.993;   -5.000;    0.000;-54.99329
 438.77;  -82.993; -102.000;    0.000;19.00653
 439.36;  -97.992;  -83.000;    0.000;-14.99230
 439.96;  -15.994;  118.000;    0.000;-133.99418
 440.55;  -62.993;  -89.000;    0.000;26.00714
 441.14;  -27.993;    6.000;    0.000;-33.99342
 441.73;  -20.991;   80.000;    0.000;-100.99122
 442.33;  -36.992;   -9.000;    0.000;-27.99192
 442.92;   22.006;   76.000;    0.000;-53.99386
 443.51;  -25.993;   16.000;    0.000;-41.99284
 444.10;   -5.992;   52.000;    0.000;-57.99239
 444.70;  -58.994;  -33.000;    0.000;-25.99394
 445.29;  -37.992;  -23.000;    0.000;-14.99195
 445.88;  -70.993;   -3.000;    0.000;-67.99260
 446.47;  -22.994;   41.000;    0.000;-63.99396
 447.07;  -74.994;  -17.000;    0.000;-57.99365
 447.66;  -60.992;   63.000;    0.000;-123.99239
 448.25;  -10.993;   11.000;    0.000;-21.99329
 448.84;  -38.993;   38.000;    0.000;-76.99309
 449.43;  -37.995;   -7.000;    0.000;-30.99483
 450.03;   -4.991;   71.000;    0.000;-75.99145
 450.62;  -88.992;  -20.000;    0.000;-68.99221
 451.21;  -80.992;   35.000;    0.000;-115.99183
 451.80;   14.007;  118.000;    0.000;-103.99319
 452.39;  -64.994;  -20.000;    0.000;-44.99367
 452.99;  -44.994;    6.000;    0.000;-50.99420
 453.58;  -55.994;   13.000;    0.000;-68.99401
 454.17; -106.995;   -8.000;    0.000;-98.99536
 454.76;   -2.995;   46.000;    0.000;-48.99472
 455.35;  107.006;   79.000;    0.000;28.00588
 455.95;  -55.993;  -38.000;    0.000;-17.99321
 456.54;  -63.995;  -59.000;    0.000;-4.99476
 457.13;  -42.993;    9.000;    0.000;-51.99339
 457.72;  -91.995;  -46.000;    0.000;-45.99520
 458.31;  -77.995;  -63.000;    0.000;-14.99494
 458.90;  -15.994;   84.000;    0.000;-99.99365
 459.50;  -39.993;  -32.000;    0.000;-7.99336
 460.09; -107.993;  -27.000;    0.000;-80.99292
 460.68; -101.994;  -60.000;    0.000;-41.99390
 461.27;    1.006;  -31.000;    0.000;32.00635
 461.86;  -63.994;  -21.000;    0.000;-42.99426
 462.45;  -11.996;  -15.000;    0.000; 3.00361
 463.04;  -61.994;  -58.000;    0.000;-3.99350
 463.64;   43.004;   23.000;    0.000;20.00434
 464.23;  -68.994;   12.000;    0.000;-80.99375
 464.82;   -7.994;   46.000;    0.000;-53.99440
 465.41;  -47.996;  -64.000;    0.000;16.00355
 466.00;  -46.994;  -58.000;    0.000;11.00557
 466.59;  -43.996;  -69.000;    0.000;25.00396
 467.18;  -56.996;  -23.000;    0.000;-33.99553
 467.77; -113.995;  -52.000;    0.000;-61.99476
 468.37;  -83.994;  -55.000;    0.000;-28.99367
 468.96;    5.006;  -18.000;    0.000;23.00635
 469.55;   36.006;   10.000;    0.000;26.00569
 470.14;  -69.994; -112.000;    0.000;42.00627
 470.73;  -16.993;  -19.000;    0.000; 2.00689
 471.32;   36.005;  -10.000;    0.000;46.00527
 471.91;  -47.995;  -58.000;    0.000;10.00491
 472.50;  -21.993;  -38.000;    0.000;16.00709
 473.09;  -38.996;  -33.000;    0.000;-5.99606
 473.68;   80.007;   48.000;    0.000;32.00680
 474.27;  -25.996;  -48.000;    0.000;22.00425
 474.86;  -49.994;  -32.000;    0.000;-17.99450
 475.46;   33.005;  -48.000;    0.000;81.00478
 476.05;  139.005;   53.000;    0.000;86.00483
 476.64;  -39.995;  -33.000;    0.000;-6.99541
 477.23;    9.005;  -57.000;    0.000;66.00524
 477.82;  -18.995;  -11.000;    0.000;-7.99520
 478.41;   27.005;  -55.000;    0.000;82.00476
 479.00;   19.005;  -29.000;    0.000;48.00521
 479.59;   42.006;  -43.000;    0.000;85.00605
 480.18;   48.004;   20.000;    0.000;28.00428
 480.77;  -12.996;  -90.000;    0.000;77.00434
 481.36;  -24.996;  -27.000;    0.000; 2.00430
 481.95;   26.005;  -15.000;    0.000;41.00535
 482.54;   25.006;  -65.000;    0.000;90.00645
 483.13;  -35.995;  -49.000;    0.000;13.00547
 483.72;   35.004;  -90.000;    0.000;125.00399
 484.31;   34.005;  -68.000;    0.000;102.00471
 484.90;   93.005;  -57.000;    0.000;150.00454
 485.49;   49.003;  -55.000;    0.000;104.00332
 486.08;  110.004;  -68.000;    0.000;178.00407
 486.67;  158.004;   30.000;    0.000;128.00368
 487.26;   83.004;  -49.000;    0.000;132.00378
 487.85;   63.005;  -51.000;    0.000;114.00462
 488.44;   98.005;  -63.000;    0.000;161.00545
 489.03;  211.004;  -15.000;    0.000;226.00424
 489.62;  129.004;  -58.000;    0.000;187.00372
 490.21;  228.004; -101.000;    0.000;329.00438
 490.80;  247.004;   31.000;    0.000;216.00383
 491.39;  205.004;  -76.000;    0.000;281.00439
 491.98;  291.004;   43.000;    0.000;248.00399
 492.57;  255.003;   66.000;    0.000;189.00307
 493.16;  374.005;  -30.000;    0.000;404.00505
 493.75;  376.005;  -45.000;    0.000;421.00495
 494.34;  442.005;   11.000;    0.000;431.00463
 494.93;  524.003;  -35.000;    0.000;559.00343
 495.52;  411.005;  -56.000;    0.000;467.00505
 496.11;  447.005;  -64.000;    0.000;511.00487
 496.70;  582.006;  -16.000;    0.000;598.00617
 497.29;  591.005;  -15.000;    0.000;606.00475
 497.88;  790.004;   11.000;    0.000;779.00433
 498.47;  710.004;   47.000;    0.000;663.00421
 499.06;  811.005;   57.000;    0.000;754.00503
 499.64;  807.004;   -9.000;    0.000;816.00401
 500.23;  855.005;   33.000;    0.000;822.00467
 500.82;  935.004;  -15.000;    0.000;950.00450
 501.41; 1095.005;   66.000;    0.000;1029.00549
 502.00; 1156.005;  -28.000;    0.000;1184.00497
 502.59; 1175.004;   24.000;    0.000;1151.00438
 503.18; 1332.005;  -20.000;    0.000;1352.00457
 503.77; 1289.005;   41.000;    0.000;1248.00455
 504.36; 1624.004;    2.000;    0.000;1622.00428
 504.95; 1500.004;  -17.000;    0.000;1517.00445
 505.54; 1768.005;   31.000;    0.000;1737.00472
 506.12; 1962.005;  195.000;    0.000;1767.00454
 506.71; 2035.005;   38.000;    0.000;1997.00453
 507.30; 2120.006;  104.000;    0.000;2016.00572
 507.89; 2400.006;   31.000;    0.000;2369.00569
 508.48; 2400.004;   76.000;    0.000;2324.00413
 509.07; 2643.006;   53.000;    0.000;2590.00623
 509.66; 3045.004;   94.000;    0.000;2951.00400
 510.25; 3080.006;   33.000;    0.000;3047.00560
 510.84; 3156.005;   78.000;    0.000;3078.00500
 511.42; 3510.005;   15.000;    0.000;3495.00459
 512.01; 3845.002;  199.000;    0.000;3646.00238
 512.60; 3915.005;  102.000;    0.000;3813.00490
 513.19; 4194.005;  133.000;    0.000;4061.00505
 513.78; 4428.005;  122.000;    0.000;4306.00527
 514.37; 4609.004;  162.000;    0.000;4447.00398
 514.95; 4851.003;  123.000;    0.000;4728.00324
 515.54; 5177.004;  118.000;    0.000;5059.00434
 516.13; 5195.005;  102.000;    0.000;5093.00490
 516.72; 5738.004;  180.000;    0.000;5558.00410
 517.31; 5803.004;  170.000;    0.000;5633.00400
 517.90; 5931.004;   74.000;    0.000;5857.00377
 518.48; 6365.004;  128.000;    0.000;6237.00419
 519.07; 6765.005;  176.000;    0.000;6589.00516
 519.66; 6773.004;  219.000;    0.000;6554.00352
 520.25; 6823.004;  104.000;    0.000;6719.00383
 520.84; 7296.005;  170.000;    0.000;7126.00463
 521.43; 7270.004;  191.000;    0.000;7079.00365
 522.01; 7569.004;  269.000;    0.000;7300.00373
 522.60; 7654.004;  202.000;    0.000;7452.00429
 523.19; 7730.004;  165.000;    0.000;7565.00406
 523.78; 7734.005;  220.000;    0.000;7514.00467
 524.37; 7743.005;  153.000;    0.000;7590.00525
 524.95; 7962.003;  181.000;    0.000;7781.00345
 525.54; 7665.005;  152.000;    0.000;7513.00471
 526.13; 7679.004;  141.000;    0.000;7538.00443
 526.72; 7881.003;  151.000;    0.000;7730.00267
 527.30; 7859.004;  121.000;    0.000;7738.00363
 527.89; 7679.005;  108.000;    0.000;7571.00477
 528.48; 7522.003;  133.000;    0.000;7389.00347
 529.07; 7554.005;  124.000;    0.000;7430.00457
 529.65; 7184.003;  240.000;    0.000;6944.00314
 530.24; 7074.005;  140.000;    0.000;6934.00460
 530.83; 6981.003;   69.000;    0.000;6912.00330
 531.42; 6889.004;  184.000;    0.000;6705.00367
 532.00; 6691.004;  159.000;    0.000;6532.00418
 532.59; 6262.003;  153.000;    0.000;6109.00276
 533.18; 6359.003;  113.000;    0.000;6246.00282
 533.77; 6237.004;  206.000;    0.000;6031.00433
 534.35; 5918.004;  155.000;    0.000;5763.00375
 534.94; 5654.004;   77.000;    0.000;5577.00364
 535.53; 5541.003;  109.000;    0.000;5432.00264
 536.12; 5342.005;   68.000;    0.000;5274.00480
 536.70; 5034.002;   98.000;    0.000;4936.00244
 537.29; 4843.003;   71.000;    0.000;4772.00322
 537.88; 4659.003;  103.000;    0.000;4556.00319
 538.46; 4545.004;   40.000;    0.000;4505.00395
 539.05; 4197.003;   43.000;    0.000;4154.00313
 539.64; 4185.003;   68.000;    0.000;4117.00254
 540.23; 4015.004;  108.000;    0.000;3907.00354
 540.81; 4088.003;  163.000;    0.000;3925.00283
 541.40; 3670.005;   45.000;    0.000;3625.00459
 541.99; 3477.004;   -1.000;    0.000;3478.00354
 542.57; 3502.003;   49.000;    0.000;3453.00320
 543.16; 3382.004;   39.000;    0.000;3343.00410
 543.75; 3236.002;   56.000;    0.000;3180.00210
 544.33; 3155.003;   44.000;    0.000;3111.00325
 544.92; 3018.002;   90.000;    0.000;2928.00218
 545.51; 2915.003;   86.000;    0.000;2829.00341
 546.09; 2791.004;  104.000;    0.000;2687.00402
 546.68; 2754.004;  103.000;    0.000;2651.00388
 547.27; 2731.003;   33.000;    0.000;2698.00256
 547.85; 2537.003;   42.000;    0.000;2495.00289
 548.44; 2401.002;  -18.000;    0.000;2419.00243
 549.03; 2378.002;   41.000;    0.000;2337.00230
 549.61; 2255.004;    8.000;    0.000;2247.00400
 550.20; 2318.003;   40.000;    0.000;2278.00279
 550.78; 2150.003;   70.000;    0.000;2080.00345
 551.37; 2117.001;   74.000;    0.000;2043.00144
 551.96; 1899.002;   59.000;    0.000;1840.00220
 552.54; 1870.005;   13.000;    0.000;1857.00493
 553.13; 1771.004;  -15.000;    0.000;1786.00380
 553.72; 1785.003;   -2.000;    0.000;1787.00322
 554.30; 1670.002;   56.000;    0.000;1614.00152
 554.89; 1702.002;  -13.000;    0.000;1715.00161
 555.47; 1653.003;   17.000;    0.000;1636.00283
 556.06; 1502.004;   76.000;    0.000;1426.00360
 556.65; 1428.003;   68.000;    0.000;1360.00299
 557.23; 1439.003;   47.000;    0.000;1392.00313
 557.82; 1167.002;   10.000;    0.000;1157.00232
 558.40; 1225.003;  -50.000;    0.000;1275.00285
 558.99; 1193.005;    5.000;    0.000;1188.00483
 559.58; 1202.004;   61.000;    0.000;1141.00380
 560.16; 1189.005;  -38.000;    0.000;1227.00471
 560.75; 1054.004;   34.000;    0.000;1020.00410
 561.33; 1116.003;   86.000;    0.000;1030.00288
 561.92; 1021.004;    2.000;    0.000;1019.00385
 562.50;  947.003;   27.000;    0.000;920.00262
 563.09;  879.003;  -14.000;    0.000;893.00317
 563.68;  755.003;   -4.000;    0.000;759.00294
 564.26;  758.003;   14.000;    0.000;744.00344
 564.85;  846.003;   10.000;    0.000;836.00311
 565.43;  790.004;   -1.000;    0.000;791.00354
 566.02;  779.003;   -6.000;    0.000;785.00332
 566.60;  722.002;  -17.000;    0.000;739.00248
 567.19;  611.004;  -22.000;    0.000;633.00356
 567.77;  633.002;   -8.000;    0.000;641.00176
 568.36;  717.002;   18.000;    0.000;699.00206
 568.94;  594.003;  -28.000;    0.000;622.00270
 569.53;  613.003;   12.000;    0.000;601.00291
 570.11;  550.002;   -8.000;    0.000;558.00162
 570.70;  530.003;  -41.000;    0.000;571.00269
 571.28;  475.004;  -30.000;    0.000;505.00444
 571.87;  487.002;  -55.000;    0.000;542.00163
 572.45;  461.002;   23.000;    0.000;438.00233
 573.04;  361.004;  -31.000;    0.000;392.00412
 573.62;  347.003;  -35.000;    0.000;382.00263
 574.21;  517.003;   84.000;    0.000;433.00295
 574.79;  412.005;   12.000;    0.000;400.00465
 575.38;  382.003;  -88.000;    0.000;470.00268
 575.96;  365.002;  -28.000;    0.000;393.00169
 576.55;  267.002;  -45.000;    0.000;312.00224
 577.13;  345.002;   15.000;    0.000;330.00184
 577.72;  204.002;  -31.000;    0.000;235.00245
 578.30;  225.003;  -37.000;    0.000;262.00335
 578.89;  278.002;  -59.000;    0.000;337.00155
 579.47;  306.003;  -15.000;    0.000;321.00324
 580.06;  246.004;   58.000;    0.000;188.00393
 580.64;  162.003;   -2.000;    0.000;164.00260
 581.23;  156.003;  -42.000;    0.000;198.00263
 581.81;  281.003;  142.000;    0.000;139.00314
 582.39;  189.003;  -47.000;    0.000;236.00252
 582.98;  175.004;  -50.000;    0.000;225.00397
 583.56;  199.004;   -2.000;    0.000;201.00432
 584.15;  210.003;   10.000;    0.000;200.00340
 584.73;  146.004;   12.000;    0.000;134.00421
 585.32;  245.003;   18.000;    0.000;227.00336
 585.90;  299.004;  154.000;    0.000;145.00416
 586.48;  152.003;  -22.000;    0.000;174.00296
 587.07;  221.003;  -12.000;    0.000;233.00283
 587.65;  181.003;   31.000;    0.000;150.00286
 588.24;  120.003;  -42.000;    0.000;162.00255
 588.82;   80.003;  -40.000;    0.000;120.00275
 589.41; 2136.002; 1798.000;    0.000;338.00234
 589.99;   57.004;  -29.000;    0.000;86.00359
 590.57;   40.002;  -60.000;    0.000;100.00187
 591.16;  190.004;   94.000;    0.000;96.00374
 591.74;  138.003;   29.000;    0.000;109.00268
 592.32;  100.002;   18.000;    0.000;82.00224
 592.91;  118.004;   14.000;    0.000;104.00383
 593.49;   38.002;  -59.000;    0.000;97.00217
 594.08;   25.003;  -36.000;    0.000;61.00349
 594.66;  117.002;  -12.000;    0.000;129.00227
 595.24;    8.002;   -2.000;    0.000;10.00209
 595.83;    5.003;  -48.000;    0.000;53.00309
 596.41;   83.001;  -11.000;    0.000;94.00129
 596.99;   -0.998;   49.000;    0.000;-49.99796
 597.58;  -11.998;   -5.000;    0.000;-6.99762
 598.16;   70.004;   60.000;    0.000;10.00422
 598.74;   90.003;   41.000;    0.000;49.00254
 599.33;  -23.997;  -18.000;    0.000;-5.99674
 599.91;  -54.996;  -61.000;    0.000; 6.00350
 600.49;  -53.996;  -31.000;    0.000;-22.99613
 601.08;   31.002;   73.000;    0.000;-41.99783
 601.66;  -26.998;  -16.000;    0.000;-10.99773
 602.24;  -79.998; -102.000;    0.000;22.00191
 602.83;  -80.998;  -55.000;    0.000;-25.99801
 603.41;  -52.998;  -11.000;    0.000;-41.99778
 603.99;   24.005;  -52.000;    0.000;76.00546
 604.58;   10.003;  -11.000;    0.000;21.00258
 605.16;   -5.997;  -26.000;    0.000;20.00316
 605.74;  -20.997;  -59.000;    0.000;38.00268
 606.33;  -25.998;  -34.000;    0.000; 8.00240
 606.91;    2.004;  -21.000;    0.000;23.00355
 607.49;   13.003;  -58.000;    0.000;71.00318
 608.07;   37.002;  -48.000;    0.000;85.00212
 608.66;  -35.998;  -68.000;    0.000;32.00241
 609.24;   -0.998;   16.000;    0.000;-16.99771
 609.82;  -74.997;  -69.000;    0.000;-5.99708
 610.41;  -55.997;  -58.000;    0.000; 2.00283
 610.99;  -58.998;  -97.000;    0.000;38.00250
 611.57;  -23.998;  -33.000;    0.000; 9.00157
 612.15;  -45.997;   15.000;    0.000;-60.99718
 612.74;  112.002;   74.000;    0.000;38.00155
 613.32;    2.003;  -30.000;    0.000;32.00271
 613.90;   32.002;   42.000;    0.000;-9.99762
 614.48;  -19.997;   -3.000;    0.000;-16.99691
 615.07;  -30.996;  -48.000;    0.000;17.00415
 615.65;  -35.999;  -30.000;    0.000;-5.99882
 616.23;  -12.997;  -48.000;    0.000;35.00270
 616.81;  -81.995;  -18.000;    0.000;-63.99533
 617.40;  -35.994;  -13.000;    0.000;-22.99422
 617.98;  -42.993;   -7.000;    0.000;-35.99319
 618.56;  -71.996;    0.000;    0.000;-71.99571
 619.14;  -97.995;  -47.000;    0.000;-50.99502
 619.72;  -92.995;  -76.000;    0.000;-16.99508
 620.31;   66.004;    9.000;    0.000;57.00381
 620.89;  -47.997;   -9.000;    0.000;-38.99682
 621.47;  -43.997;  -51.000;    0.000; 7.00338
 622.05;  -52.997;  -29.000;    0.000;-23.99686
 622.63;  -51.996;  -33.000;    0.000;-18.99603
 623.22;  -56.998;  -65.000;    0.000; 8.00201
 623.80;  -65.996;    7.000;    0.000;-72.99584
 624.38;   52.003;   71.000;    0.000;-18.99724
 624.96; -115.996;  -75.000;    0.000;-40.99603
 625.54; -123.996;  -66.000;    0.000;-57.99634
 626.13;  -55.998;  -17.000;    0.000;-38.99778
 626.71;  253.003;  218.000;    0.000;35.00321
 627.29;   -5.995;  -33.000;    0.000;27.00524
 627.87;  -39.997;  -49.000;    0.000; 9.00332
 628.45;  -65.997;  -64.000;    0.000;-1.99682
 629.03;   56.004;   18.000;    0.000;38.00364
 629.62; -112.996;  -58.000;    0.000;-54.99624
 630.20;  -68.996; -100.000;    0.000;31.00359
 630.78;  -97.997;  -39.000;    0.000;-58.99712
 631.36;  -54.996;  -65.000;    0.000;10.00434
 631.94;  -15.997;  -40.000;    0.000;24.00274
 632.52;  -64.998;  -14.000;    0.000;-50.99765
 633.10;  -15.996;  -27.000;    0.000;11.00432
 633.68;  -14.996;  -43.000;    0.000;28.00400
 634.27;  -48.996;  -35.000;    0.000;-13.99630
 634.85;  -41.996;  -31.000;    0.000;-10.99585
 635.43; -113.995; -126.000;    0.000;12.00540
 636.01;  -59.997;  -31.000;    0.000;-28.99683
 636.59;  -42.997;  -66.000;    0.000;23.00345
 637.17;  -84.994;  -57.000;    0.000;-27.99382
 637.75;  -40.996;  -68.000;    0.000;27.00448
 638.33;  -90.995;  -62.000;    0.000;-28.99538
 638.91;  -45.996;  -34.000;    0.000;-11.99581
 639.50;  -69.994;  -40.000;    0.000;-29.99443
 640.08; -115.996;  -83.000;    0.000;-32.99612
 640.66;  -56.996;  -41.000;    0.000;-15.99613
 641.24;   15.004;   46.000;    0.000;-30.99613
 641.82;   13.004;   10.000;    0.000; 3.00386
 642.40;  -22.996;  -41.000;    0.000;18.00385
 642.98;  -17.996;  -95.000;    0.000;77.00384
 643.56;  -55.996;  -25.000;    0.000;-30.99617
 644.14;  -92.996;  -68.000;    0.000;-24.99618
 644.72;  -48.996;   -4.000;    0.000;-44.99619
 645.30;   10.004;  -28.000;    0.000;38.00380
 645.88;  -50.996;  -24.000;    0.000;-26.99621
 646.46;  -25.996;  -24.000;    0.000;-1.99622
 647.04; -107.996;  -61.000;    0.000;-46.99623
 647.62;   45.004;   47.000;    0.000;-1.99624
 648.20;    3.004;    1.000;    0.000; 2.00375
 648.78;   -5.996;   11.000;    0.000;-16.99626
 649.36;  -90.996;  -47.000;    0.000;-43.99627
 649.94;   -9.996; -112.000;    0.000;102.00372
 650.52;  -78.996;  -65.000;    0.000;-13.99629
 651.11;  -58.996;  -47.000;    0.000;-11.99630
 651.69;  -30.996;  -41.000;    0.000;10.00369
 652.27;  -43.996;  -11.000;    0.000;-32.99632
 652.85;  -74.996;  -45.000;    0.000;-29.99633
 653.43;  -45.996;  -24.000;    0.000;-21.99633
 654.01;  -68.996;  -58.000;    0.000;-10.99634
 654.59;  -57.996;  -52.000;    0.000;-5.99635
 655.17;  -81.996;  -14.000;    0.000;-67.99636
 655.74;  -67.996;  -58.000;    0.000;-9.99637
 656.32;  -54.996;  -67.000;    0.000;12.00362
 656.90;  -68.996;  -24.000;    0.000;-44.99639
 657.48;    7.004;   67.000;    0.000;-59.99640
 658.06;  -90.996;  -68.000;    0.000;-22.99641
 658.64;  -33.996;  -44.000;    0.000;10.00358
 659.22;  -87.996;  -19.000;    0.000;-68.99643
 659.80;  -39.996;  -57.000;    0.000;17.00356
 660.38; -114.996; -114.000;    0.000;-0.99645
 660.96; -116.996; -123.000;    0.000; 6.00354
 661.54;  -62.996;  -45.000;    0.000;-17.99647
 662.12;  -15.996;  -68.000;    0.000;52.00352
 662.70;  -55.996;  -94.000;    0.000;38.00351
 663.28;  -42.996; -106.000;    0.000;63.00350
 663.86;    9.003;   -5.000;    0.000;14.00349
 664.44;   33.003;  -65.000;    0.000;98.00348
 665.02;    0.003;  -11.000;    0.000;11.00348
 665.60;  -19.997;  -20.000;    0.000; 0.00347
 666.18;  -25.997;  -24.000;    0.000;-1.99654
 666.75;   33.003;   73.000;    0.000;-39.99655
 667.33;  -77.997;  -44.000;    0.000;-33.99656
 667.91;  106.003;  134.000;    0.000;-27.99657
 668.49;  -21.997;   21.000;    0.000;-42.99658
 669.07;  -14.997;  -27.000;    0.000;12.00341
 669.65;  -29.997;  -49.000;    0.000;19.00340
 670.23;  -70.997;  -75.000;    0.000; 4.00339
 670.81;  -62.997;  -18.000;    0.000;-44.99662
 671.39;  -50.997; -128.000;    0.000;77.00337
 671.97;  -21.997;  -47.000;    0.000;25.00336
 672.54;  -74.997;   11.000;    0.000;-85.99665
 673.12;   -7.997;   -1.000;    0.000;-6.99666
 673.70;  -50.997;  -22.000;    0.000;-28.99667
 674.28;   26.003;   19.000;    0.000; 7.00332
 674.86;  -90.997;  -70.000;    0.000;-20.99669
 675.44;  -73.997;  -36.000;    0.000;-37.99670
 676.02;  -23.997;    3.000;    0.000;-26.99671
 676.59;  -13.997;   34.000;    0.000;-47.99672
 677.17;  -76.997;    1.000;    0.000;-77.99672
 677.75;  -51.997;  -62.000;    0.000;10.00327
 678.33;  -38.997;  -83.000;    0.000;44.00326
 678.91;  -93.997;  -44.000;    0.000;-49.99675
 679.49;  -16.997;  -14.000;    0.000;-2.99676
 680.06;  -42.997;  -71.000;    0.000;28.00323
 680.64;  -41.997;  -38.000;    0.000;-3.99678
 681.22;  -89.997;  -21.000;    0.000;-68.99679
 681.80;  -26.997;  -83.000;    0.000;56.00320
 682.38;   -4.997;  -44.000;    0.000;39.00319
 682.96;   -2.997;  -10.000;    0.000; 7.00318
 683.53;   13.003;   12.000;    0.000; 1.00317
 684.11;  -66.997;    9.000;    0.000;-75.99684
 684.69;  -69.997; -121.000;    0.000;51.00315
 685.27;    0.003;   29.000;    0.000;-28.99686
 685.85;  -71.997;  -30.000;    0.000;-41.99687
 686.42;  -86.997;  -51.000;    0.000;-35.99688
 687.00;    6.003;  -37.000;    0.000;43.00311
 687.58;  -28.997;  -45.000;    0.000;16.00310
 688.16; -117.997;  -65.000;    0.000;-52.99691
 688.73; -123.997;  -66.000;    0.000;-57.99692
 689.31;    2.003;  -23.000;    0.000;25.00308
 689.89;   -4.997;  -35.000;    0.000;30.00307
 690.47;   51.003;   34.000;    0.000;17.00306
 691.04;  -54.997;  -65.000;    0.000;10.00305
 691.62;  -31.997;  -42.000;    0.000;10.00304
 692.20;  -62.997;  -92.000;    0.000;29.00303
 692.78;  -26.997;  -33.000;    0.000; 6.00302
 693.35;   14.003;   -6.000;    0.000;20.00301
 693.93; -111.997;  -44.000;    0.000;-67.99700
 694.51;  -87.997;  -94.000;    0.000; 6.00299
 695.09;  -37.997;  -77.000;    0.000;39.00298
 695.66;  -70.997;  -89.000;    0.000;18.00297
 696.24;  -66.997; -118.000;    0.000;51.00296
 696.82;  -29.997; -107.000;    0.000;77.00295
 697.39;  -85.997;  -92.000;    0.000; 6.00294
 697.97;   -2.997;  -15.000;    0.000;12.00293
 698.55;  -95.997;  -44.000;    0.000;-51.99708
 699.13;  -62.997;  -84.000;    0.000;21.00291
 699.70;  -46.997;  -95.000;    0.000;48.00290
 700.28;  -90.997;  -67.000;    0.000;-23.99711
 700.86;  -49.997;  -75.000;    0.000;25.00288
 701.43;  -67.997;  -49.000;    0.000;-18.99712
 702.01;  -27.997;  -51.000;    0.000;23.00287
 702.59;  -56.997;  -48.000;    0.000;-8.99714
 703.16;  -47.997; -107.000;    0.000;59.00285
 703.74;  -74.997;  -48.000;    0.000;-26.99716
 704.32;    2.003;    4.000;    0.000;-1.99717
 704.89;  -89.997;  -66.000;    0.000;-23.99718
 705.47;  -66.997;  -85.000;    0.000;18.00281
 706.05;   16.003;  -48.000;    0.000;64.00280
 706.62;  -83.997;  -59.000;    0.000;-24.99721
 707.20;  -74.997;  -85.000;    0.000;10.00278
 707.78;  -56.997;  -60.000;    0.000; 3.00277
 708.35;  -76.997; -109.000;    0.000;32.00276
 708.93;  -69.997;  -43.000;    0.000;-26.99725
 709.51; -113.997;  -88.000;    0.000;-25.99726
 710.08; -129.997;  -96.000;    0.000;-33.99727
 710.66;  -47.997;  -57.000;    0.000; 9.00272
 711.23;  -14.997;  -30.000;    0.000;15.00271
 711.81; -134.997;  -84.000;    0.000;-50.99730
 712.39;   29.003;  -49.000;    0.000;78.00269
 712.96;  -96.997;  -95.000;    0.000;-1.99732
 713.54;  -89.997;  -40.000;    0.000;-49.99732
 714.11; -102.997;  -44.000;    0.000;-58.99733
 714.69;  -87.997;  -69.000;    0.000;-18.99734
 715.27;  -64.997;  -65.000;    0.000; 0.00265
 715.84;   43.003;  -19.000;    0.000;62.00264
 716.42;  -20.997;  -53.000;    0.000;32.00263
 716.99; -111.997; -111.000;    0.000;-0.99738
 717.57;  -55.997;  -43.000;    0.000;-12.99739
 718.15;  -38.997; -102.000;    0.000;63.00260
 718.72;  -15.997;  -48.000;    0.000;32.00259
 719.30; -126.997; -118.000;    0.000;-8.99742
 719.87;  -99.997;  -42.000;    0.000;-57.99743
 720.45; -103.997; -107.000;    0.000; 3.00256
 721.02;  -18.997;  -88.000;    0.000;69.00255
 721.60;  -97.997;  -75.000;    0.000;-22.99746
 722.17;  -74.997;  -60.000;    0.000;-14.99747
 722.75;  -95.997;  -92.000;    0.000;-3.99748
 723.33;  -91.997; -104.000;    0.000;12.00251
 723.90;   12.003;   19.000;    0.000;-6.99750
 724.48;  -46.998;  -80.000;    0.000;33.00249
 725.05;    2.002;  -81.000;    0.000;83.00248
 725.63;   -9.998;  -69.000;    0.000;59.00248
 726.20;   30.002;  -27.000;    0.000;57.00247
 726.78;  -55.998;  -79.000;    0.000;23.00246
 727.35;   34.002;   17.000;    0.000;17.00245
 727.93;  -72.998;  -73.000;    0.000; 0.00244
 728.50;  103.002;   32.000;    0.000;71.00243
 729.08;  -34.998;  -54.000;    0.000;19.00242
 729.65;   46.002;   73.000;    0.000;-26.99759
 730.23;  -68.998;  -78.000;    0.000; 9.00240
 730.80; -120.998;  -70.000;    0.000;-50.99761
 731.38;    2.002;  -73.000;    0.000;75.00238
 731.95;   50.002;   36.000;    0.000;14.00237
 732.53; -102.998; -116.000;    0.000;13.00236
 733.10;  -20.998;  -20.000;    0.000;-0.99765
 733.68;  -55.998;  -58.000;    0.000; 2.00234
 734.25;  -22.998;  -38.000;    0.000;15.00233
 734.82;  -48.998;  -49.000;    0.000; 0.00232
 735.40;  -63.998;  -67.000;    0.000; 3.00231
 735.97;   12.002;  -49.000;    0.000;61.00230
 736.55;   44.002;  -10.000;    0.000;54.00229
 737.12; -104.998;  -56.000;    0.000;-48.99772
 737.70; -102.998; -118.000;    0.000;15.00228
 738.27; -111.998;   -2.000;    0.000;-109.99773
 738.85;  -65.998;  -80.000;    0.000;14.00226
 739.42; -115.998;  -32.000;    0.000;-83.99775
 739.99; -108.998;  -75.000;    0.000;-33.99776
 740.57;  -52.998;  -96.000;    0.000;43.00223
 741.14;  -75.998;   -6.000;    0.000;-69.99778
 741.72;  -86.998;  -79.000;    0.000;-7.99779
 742.29; -103.998;  -83.000;    0.000;-20.99780
 742.87;  -67.998;  -34.000;    0.000;-33.99781
 743.44;  -36.998;  -55.000;    0.000;18.00218
 744.01;  -73.998;  -52.000;    0.000;-21.99783
 744.59;  -35.998;  -49.000;    0.000;13.00216
 745.16;  -33.998;   -2.000;    0.000;-31.99785
 745.73;  -93.998;  -68.000;    0.000;-25.99786
 746.31;  -47.998;  -78.000;    0.000;30.00213
 746.88; -138.998; -113.000;    0.000;-25.99788
 747.46;  -39.998;  -33.000;    0.000;-6.99789
 748.03;  -64.998;  -90.000;    0.000;25.00210
 748.60;    9.002;  -71.000;    0.000;80.00209
 749.18;  -93.998;  -94.000;    0.000; 0.00209
 749.75;   65.002;   11.000;    0.000;54.00208
 750.32;  -57.998;  -90.000;    0.000;32.00207
 750.90;  -61.998;  -68.000;    0.000; 6.00206
 751.47;  -43.998;    5.000;    0.000;-48.99795
 752.04;  -10.998;  -42.000;    0.000;31.00204
 752.62;  -67.998;  -94.000;    0.000;26.00203
 753.19;  -96.998;  -72.000;    0.000;-24.99798
 753.76;  -68.998;  -73.000;    0.000; 4.00201
 754.34;   38.002;  -38.000;    0.000;76.00200
 754.91;  -53.998;  -52.000;    0.000;-1.99801
 755.48;  -25.998;  -44.000;    0.000;18.00198
 756.06;   23.002;   19.000;    0.000; 4.00197
 756.63;  100.002;   55.000;    0.000;45.00196
 757.20;  -60.998;  -36.000;    0.000;-24.99805
 757.78;  -98.998;  -87.000;    0.000;-11.99806
 758.35;  -32.998;  -75.000;    0.000;42.00193
 758.92;   -5.998;  -17.000;    0.000;11.00192
 759.50;  -87.998;  -32.000;    0.000;-55.99809
 760.07;  -87.998; -105.000;    0.000;17.00190
 760.64;  -95.998;  -95.000;    0.000;-0.99811
 761.21;  -95.998;  -32.000;    0.000;-63.99811
 761.79;  -58.998; -110.000;    0.000;51.00188
 762.36;  -85.998;  -19.000;    0.000;-66.99813
 762.93; -125.998;  -68.000;    0.000;-57.99814
 763.50;  -65.998; -102.000;    0.000;36.00185
 764.08;  -71.998;  -83.000;    0.000;11.00184
 764.65;  -78.998;  -60.000;    0.000;-18.99817
 765.22;  -82.998;  -73.000;    0.000;-9.99818
 765.79; -126.998; -117.000;    0.000;-9.99819
 766.37; -120.998;  -44.000;    0.000;-76.99820
 766.94;  -87.998;  -12.000;    0.000;-75.99821
 767.51;  -67.998;  -59.000;    0.000;-8.99822
 768.08;   21.002;  -23.000;    0.000;44.00177
 768.66;  -45.998;    4.000;    0.000;-49.99824
 769.23;  -47.998;  -49.000;    0.000; 1.00175
 769.80; -133.998; -123.000;    0.000;-10.99826
 770.37; -129.998;  -56.000;    0.000;-73.99827
 770.94;  -59.998;  -11.000;    0.000;-48.99828
 771.52;  -86.998; -125.000;    0.000;38.00171
 772.09;  -79.998;  -22.000;    0.000;-57.99830
 772.66;  -48.998;  -36.000;    0.000;-12.99831
 773.23;  -54.998;  -63.000;    0.000; 8.00169
 773.80;  -57.998;  -32.000;    0.000;-25.99832
 774.38;  -29.998;  -82.000;    0.000;52.00167
 774.95;   28.002;  -10.000;    0.000;38.00166
 775.52;  -38.998;  -19.000;    0.000;-19.99835
 776.09;  -32.998;   -4.000;    0.000;-28.99836
 776.66;  -86.998;  -65.000;    0.000;-21.99837
 777.24;  -14.998;  -72.000;    0.000;57.00162
 777.81;   24.002;  -24.000;    0.000;48.00161
 778.38;   -0.998;  -84.000;    0.000;83.00160
 778.95;  -68.998;  -59.000;    0.000;-9.99841
 779.52;  -66.998;    1.000;    0.000;-67.99842
 780.09;   48.002;   93.000;    0.000;-44.99843
 780.66;  -57.998;    5.000;    0.000;-62.99844
 781.24;   17.002;  -51.000;    0.000;68.00155
 781.81;  -77.998;  -60.000;    0.000;-17.99846
 782.38;  -49.998;  -77.000;    0.000;27.00153
 782.95;  -97.998; -116.000;    0.000;18.00152
 783.52;  -48.998;  -67.000;    0.000;18.00151
 784.09;  -70.998;    8.000;    0.000;-78.99850
 784.66;   13.001;   39.000;    0.000;-25.99851
 785.23;  -70.999;  -73.000;    0.000; 2.00149
 785.80;  -46.999;  -59.000;    0.000;12.00148
 786.38;  -23.999;  -54.000;    0.000;30.00147
 786.95;  -83.999;  -61.000;    0.000;-22.99854
 787.52;  -50.999;  -79.000;    0.000;28.00145
 788.09;  -99.999;  -88.000;    0.000;-11.99856
 788.66; -100.999;  -46.000;    0.000;-54.99857
 789.23;   14.001;  -56.000;    0.000;70.00142
 789.80;  -79.999;  -57.000;    0.000;-22.99859
 790.37;  -77.999;  -75.000;    0.000;-2.99860
 790.94;   86.001;   33.000;    0.000;53.00139
 791.51;  -84.999;  -24.000;    0.000;-60.99862
 792.08; -120.999; -115.000;    0.000;-5.99863
 792.65;  -41.999;  -12.000;    0.000;-29.99864
 793.22;  -46.999;  -62.000;    0.000;15.00135
 793.80;  -54.999; -133.000;    0.000;78.00134
 794.37;  -39.999;  -13.000;    0.000;-26.99867
 794.94;   35.001;   41.000;    0.000;-5.99868
 795.51;  -96.999;  -25.000;    0.000;-71.99869
 796.08;   34.001;  -36.000;    0.000;70.00130
 796.65; -142.999;  -63.000;    0.000;-79.99871
 797.22; -115.999;  -82.000;    0.000;-33.99871
 797.79;  102.001;   36.000;    0.000;66.00128
 798.36;  -66.999; -136.000;    0.000;69.00127
 798.93;  -86.999;  -49.000;    0.000;-37.99874
 799.50;  -51.999; -117.000;    0.000;65.00125
 800.07; -123.999; -122.000;    0.000;-1.99876
 800.64;  -32.999;  -57.000;    0.000;24.00123
 801.21;  -30.999;  -21.000;    0.000;-9.99878
 801.78;  -85.999;  -70.000;    0.000;-15.99879
 802.35;  -21.999; -117.000;    0.000;95.00120
 802.92;  -95.999;  -70.000;    0.000;-25.99881
 803.49; -113.999;  -39.000;    0.000;-74.99882
 804.06;  -67.999;  -32.000;    0.000;-35.99883
 804.63;  -84.999;  -42.000;    0.000;-42.99884
 805.20;  -24.999;  -66.000;    0.000;41.00115
 805.77;  -97.999;  -30.000;    0.000;-67.99886
 806.34;  -88.999; -111.000;    0.000;22.00113
 806.91;  -47.999;  -69.000;    0.000;21.00112
 807.47;  -84.999;  -74.000;    0.000;-10.99889
 808.04;  -29.999;  -58.000;    0.000;28.00110
 808.61; -122.999;  -88.000;    0.000;-34.99891
 809.18;  -65.999;  -46.000;    0.000;-19.99891
 809.75;  -77.999;  -70.000;    0.000;-7.99892
 810.32;  -61.999;  -84.000;    0.000;22.00107
 810.89;   -6.999;  -38.000;    0.000;31.00106
 811.46;  -76.999;   -7.000;    0.000;-69.99895
 812.03;  -78.999;  -38.000;    0.000;-40.99896
 812.60; -106.999;  -62.000;    0.000;-44.99897
 813.17;  -44.999;  -53.000;    0.000; 8.00102
 813.74;   71.001;   26.000;    0.000;45.00101
 814.31;  -46.999;  -95.000;    0.000;48.00100
 814.87;  -46.999;  -58.000;    0.000;11.00099
 815.44;  -83.999;  -46.000;    0.000;-37.99902
 816.01;   22.001;  -21.000;    0.000;43.00097
 816.58; -126.999; -116.000;    0.000;-10.99904
 817.15;   29.001;  -56.000;    0.000;85.00095
 817.72;  -81.999; -100.000;    0.000;18.00094
 818.29;  -19.999;   22.000;    0.000;-41.99907
 818.86;  -50.999;   18.000;    0.000;-68.99908
 819.42;  -20.999;  -63.000;    0.000;42.00091
 819.99;  -93.999;  -63.000;    0.000;-30.99910
 820.56; -106.999; -119.000;    0.000;12.00089
 821.13;  -33.999;  -16.000;    0.000;-17.99911
 821.70; -102.999; -104.000;    0.000; 1.00088
 822.27;  -48.999;  -87.000;    0.000;38.00087
 822.84;  -52.999;  -32.000;    0.000;-20.99914
 823.40; -103.999;  -71.000;    0.000;-32.99915
 823.97;   15.001;   47.000;    0.000;-31.99916
 824.54;  -47.999; -113.000;    0.000;65.00083
 825.11; -151.999; -132.000;    0.000;-19.99918
 825.68;  113.001;  105.000;    0.000; 8.00081
 826.24;  -73.999;  -36.000;    0.000;-37.99920
 826.81; -122.999;  -70.000;    0.000;-52.99921
 827.38;  -77.999;  -85.000;    0.000; 7.00078
 827.95;  -89.999;    5.000;    0.000;-94.99923
 828.52;  -64.999;  -72.000;    0.000; 7.00076
 829.08;   13.001;  -53.000;    0.000;66.00075
 829.65; -112.999;  -74.000;    0.000;-38.99926
 830.22;  -32.999;   -8.000;    0.000;-24.99927
 830.79;  -86.999;  -90.000;    0.000; 3.00072
 831.36;  -62.999;  -77.000;    0.000;14.00071
 831.92;  107.001;   65.000;    0.000;42.00070
 832.49;  -30.999;  -74.000;    0.000;43.00070
 833.06;  -51.999;   -9.000;    0.000;-42.99931
 833.63;  -67.999;  -54.000;    0.000;-13.99932
 834.19;  -66.999;  -85.000;    0.000;18.00067
 834.76;  -72.999;  -53.000;    0.000;-19.99934
 835.33;  -96.999; -124.000;    0.000;27.00065
 835.90;  -79.999;  -76.000;    0.000;-3.99936
 836.46;  -15.999;  -92.000;    0.000;76.00063
 837.03;  -81.999;  -74.000;    0.000;-7.99938
 837.60;  -89.999;  -85.000;    0.000;-4.99939
 838.17;  -44.999;  -23.000;    0.000;-21.99940
 838.73;   12.001;  -23.000;    0.000;35.00059
 839.30;  -29.999;   -9.000;    0.000;-20.99942
 839.87;  -24.999;    4.000;    0.000;-28.99943
 840.43;  -16.999;  -48.000;    0.000;31.00056
 841.00;  -53.999;    2.000;    0.000;-55.99945
 841.57;  -83.999;  -49.000;    0.000;-34.99946
 842.14; -108.999;  -79.000;    0.000;-29.99947
 842.70;   13.001;  -59.000;    0.000;72.00052
 843.27;  -43.999;  -73.000;    0.000;29.00051
 843.84;  -68.999;  -40.000;    0.000;-28.99950
 844.40;  -60.000;  -79.000;    0.000;19.00050
 844.97;  -59.000;  -51.000;    0.000;-7.99951
 845.54;  -39.000;  -58.000;    0.000;19.00048
 846.10;  -82.000;  -36.000;    0.000;-45.99953
 846.67; -100.000; -103.000;    0.000; 3.00046
 847.24;  -60.000;  -85.000;    0.000;25.00045
 847.80;  -79.000;  -66.000;    0.000;-12.99956
 848.37;  -84.000;  -96.000;    0.000;12.00043
 848.94;   47.000;   33.000;    0.000;14.00042
 849.50;   40.000;   19.000;    0.000;21.00041
 850.07;  -36.000;  -69.000;    0.000;33.00040
 850.63;  -40.000;   24.000;    0.000;-63.99961
 851.20;  -64.000;  -85.000;    0.000;21.00038
 851.77;  -73.000;  -61.000;    0.000;-11.99963
 852.33;   24.000;  -29.000;    0.000;53.00036
 852.90;  -84.000;  -66.000;    0.000;-17.99965
 853.47;   38.000;  -21.000;    0.000;59.00034
 854.03;  -98.000;  -94.000;    0.000;-3.99967
 854.60;   68.000;  -39.000;    0.000;107.00032
 855.16;   20.000;  -10.000;    0.000;30.00031
 855.73;  -18.000;  -22.000;    0.000; 4.00030
 856.30;  -23.000;   22.000;    0.000;-44.99970
 856.86;  -35.000;  -58.000;    0.000;23.00029
 857.43;   -2.000;   -3.000;    0.000; 1.00028
 857.99; -114.000;  -14.000;    0.000;-99.99973
 858.56;  -99.000; -122.000;    0.000;23.00026
 859.12;  -51.000;  -30.000;    0.000;-20.99975
 859.69; -104.000;  -84.000;    0.000;-19.99976
 860.26; -103.000;  -54.000;    0.000;-48.99977
 860.82;  -37.000;  -50.000;    0.000;13.00022
 861.39;  -47.000;  -68.000;    0.000;21.00021
 861.95;  -96.000;  -48.000;    0.000;-47.99980
 862.52;   -2.000;   -1.000;    0.000;-0.99981
 863.08;  -86.000;  -66.000;    0.000;-19.99982
 863.65;  -14.000;  -14.000;    0.000; 0.00017
 864.21;  -32.000;  -69.000;    0.000;37.00016
 864.78;    2.000;  -13.000;    0.000;15.00015
 865.34;   99.000;  154.000;    0.000;-54.99986
 865.91;  -23.000;  -38.000;    0.000;15.00013
 866.47;  -75.000;  -58.000;    0.000;-16.99988
 867.04;  -38.000;  -77.000;    0.000;39.00011
 867.61;  -51.000; -110.000;    0.000;59.00010
 868.17;  -66.000;  -12.000;    0.000;-53.99990
 868.74;  -70.000;  -60.000;    0.000;-9.99991
 869.30;  -81.000;  -72.000;    0.000;-8.99992
 869.86;  -37.000; -110.000;    0.000;73.00007
 870.43;  -37.000;  -72.000;    0.000;35.00006
 870.99;  -95.000; -115.000;    0.000;20.00005
 871.56;  -27.000;  -63.000;    0.000;36.00004
 872.12;  -63.000;  -65.000;    0.000; 2.00003
 872.69; -124.000; -100.000;    0.000;-23.99998
 873.25;  -41.000;  -23.000;    0.000;-17.99999
 873.82;  -73.000;  -68.000;    0.000;-5.00000
 874.38;   40.000;    7.000;    0.000;33.00000
 874.95;  -87.000;    5.000;    0.000;-92.00000
 875.51;  -54.000;  -13.000;    0.000;-41.00000
 876.08;  -56.000;  -54.000;    0.000;-2.00000
 876.64; -123.000; -117.000;    0.000;-6.00000
 877.20;  -74.000; -119.000;    0.000;45.00000
 877.77;  -94.000;  -71.000;    0.000;-23.00000
 878.33;  -85.000;  -69.000;    0.000;-16.00000
 878.90;  -52.000;  -58.000;    0.000; 6.00000
 879.46;  -31.000;  -83.000;    0.000;52.00000
 880.03;    5.000;   -3.000;    0.000; 8.00000
 880.59;  -69.000;  -86.000;    0.000;17.00000
 881.15;  -41.000;   12.000;    0.000;-53.00000
 881.72;  -62.000;  -54.000;    0.000;-8.00000
 882.28;   -2.000;    7.000;    0.000;-9.00000
 882.85;  -69.000;  -88.000;    0.000;19.00000
 883.41;  -29.000;  -32.000;    0.000; 3.00000
 883.97;  246.000;  247.000;    0.000;-1.00000
 884.54;  -69.000;  -62.000;    0.000;-7.00000
 885.10; -155.000;  -57.000;    0.000;-98.00000
 885.66;   -9.000;   -9.000;    0.000; 0.00000
 886.23;  -38.000;  -47.000;    0.000; 9.00000
 886.79;  -45.000;  -62.000;    0.000;17.00000
 887.36;  -10.000;   10.000;    0.000;-20.00000
 887.92;  -60.000;  -94.000;    0.000;34.00000
 888.48;  -34.000; -117.000;    0.000;83.00000
 889.05; -119.000; -131.000;    0.000;12.00000
 889.61;  -66.000;  -40.000;    0.000;-26.00000
 890.17;  -75.000;  -54.000;    0.000;-21.00000
 890.74;  -86.000;  -50.000;    0.000;-36.00000
 891.30;  -59.000;  -60.000;    0.000; 1.00000
 891.86;  -31.000;  -58.000;    0.000;27.00000
 892.43; -149.000; -119.000;    0.000;-30.00000
 892.99;  -71.000;  -52.000;    0.000;-19.00000
 893.55; -149.000;  -86.000;    0.000;-63.00000
 894.11;  -41.000;  -55.000;    0.000;14.00000
 894.68;  -48.000;  -48.000;    0.000; 0.00000
 895.24;   36.000;   24.000;    0.000;12.00000
 895.80;  -98.000;  -65.000;    0.000;-33.00000
 896.37;  -98.000;  -58.000;    0.000;-40.00000
 896.93;    9.000;  -21.000;    0.000;30.00000
 897.49;  -18.000; -109.000;    0.000;91.00000
 898.05;  -18.000;  -17.000;    0.000;-1.00000
 898.62;   29.000;   47.000;    0.000;-18.00000
 899.18;  -81.000;  -86.000;    0.000; 5.00000
 899.74;   57.000;   63.000;    0.000;-6.00000
 900.31;  -75.000;  -12.000;    0.000;-63.00000
 900.87;  -95.000;  -63.000;    0.000;-32.00000
 901.43; -112.000; -166.000;    0.000;54.00000
 901.99;  -60.000;  -66.000;    0.000; 6.00000
 902.56;  -84.000;  -22.000;    0.000;-62.00000
 903.12;   39.000;   45.000;    0.000;-6.00000
 903.68;  -84.000; -107.000;    0.000;23.00000
 904.24;  -60.000;  -48.000;    0.000;-12.00000
 904.80; -126.000;   -6.000;    0.000;-120.00000
 905.37; -144.000;  -32.000;    0.000;-112.00000
 905.93;   27.000;  -31.000;    0.000;58.00000
 906.49;  -72.000;   -2.000;    0.000;-70.00000
 907.05; -100.000; -107.000;    0.000; 7.00000
 907.61; -109.000;  -26.000;    0.000;-83.00000
 908.18;   64.000;   25.000;    0.000;39.00000
 908.74;  -40.000;  -34.000;    0.000;-6.00000
 909.30;  -98.000;  -94.000;    0.000;-4.00000
 909.86;  -54.000;  -74.000;    0.000;20.00000
 910.42;  -21.000; -104.000;    0.000;83.00000
 910.99;   44.000;   14.000;    0.000;30.00000
 911.55;  -54.000;  -74.000;    0.000;20.00000
 912.11;  -91.000;  -46.000;    0.000;-45.00000
 912.67;  -59.000;  -28.000;    0.000;-31.00000
 913.23; -122.000;  -93.000;    0.000;-29.00000
 913.79;  -28.000;  -38.000;    0.000;10.00000
 914.36; -111.000;  -26.000;    0.000;-85.00000
 914.92;  -76.000;  -48.000;    0.000;-28.00000
 915.48;  -15.000;  -69.000;    0.000;54.00000
 916.04;   55.000;   66.000;    0.000;-11.00000
 916.60;  -82.000;  -74.000;    0.000;-8.00000
 917.16;  -64.000;  -68.000;    0.000; 4.00000
 917.72;  -26.000;  -81.000;    0.000;55.00000
 918.28;  -44.000;  -56.000;    0.000;12.00000
 918.85;  -56.000;    0.000;    0.000;-56.00000
 919.41;   -1.000;  -24.000;    0.000;23.00000
 919.97;  -48.000;  -99.000;    0.000;51.00000
 920.53;  -37.000;  -86.000;    0.000;49.00000
 921.09;  -38.000;   65.000;    0.000;-103.00000
 921.65; -144.000;  -75.000;    0.000;-69.00000
 922.21; -104.000;  -79.000;    0.000;-25.00000
 922.77; -120.000;  -81.000;    0.000;-39.00000
 923.33;  -84.000;  -20.000;    0.000;-64.00000
 923.89;  -97.000;  -51.000;    0.000;-46.00000
 924.45; -118.000;  -82.000;    0.000;-36.00000
 925.01;  -58.000;  -45.000;    0.000;-13.00000
 925.58; -102.000;  -31.000;    0.000;-71.00000
 926.14; -144.000;  -59.000;    0.000;-85.00000
 926.70;  -76.000;  -66.000;    0.000;-10.00000
 927.26;   -3.000;   -8.000;    0.000; 5.00000
 927.82;  -65.000;  -27.000;    0.000;-38.00000
 928.38; -133.000;  -35.000;    0.000;-98.00000
 928.94;  -40.000;  -46.000;    0.000; 6.00000
 929.50;  -40.000;  -32.000;    0.000;-8.00000
 930.06; -135.000; -135.000;    0.000; 0.00000
 930.62;  -95.000; -101.000;    0.000; 6.00000
 931.18;    2.000;    0.000;    0.000; 2.00000
 931.74; -114.000;  -92.000;    0.000;-22.00000
 932.30;  -54.000;  -83.000;    0.000;29.00000
 932.86; -116.000;  -77.000;    0.000;-39.00000
 933.42; -111.000;  -91.000;    0.000;-20.00000
 933.98;  -33.000;  -53.000;    0.000;20.00000
 934.54;  -61.000;   -9.000;    0.000;-52.00000
 935.10;  -43.000;  -91.000;    0.000;48.00000
 935.66;  -86.000;  -69.000;    0.000;-17.00000
 936.22;  -52.000;  -57.000;    0.000; 5.00000
 936.78; -116.000;  -61.000;    0.000;-55.00000
 937.34;  -67.000;  -46.000;    0.000;-21.00000
 937.90;  -35.000;  -30.000;    0.000;-5.00000
 938.46; -131.000;  -34.000;    0.000;-97.00000
 939.02;  -76.000;  -45.000;    0.000;-31.00000
 939.58;  -96.000; -130.000;    0.000;34.00000
 940.14;   -7.000;  -54.000;    0.000;47.00000
 940.70;  -28.000;   -6.000;    0.000;-22.00000
 941.25;  -83.000;  -90.000;    0.000; 7.00000
 941.81;  -78.000;  -66.000;    0.000;-12.00000
 942.37;  -26.000;  -62.000;    0.000;36.00000
 942.93; -106.000; -108.000;    0.000; 2.00000
 943.49; -108.000;  -64.000;    0.000;-44.00000
 944.05; -106.000; -102.000;    0.000;-4.00000
 944.61;  -69.000;    8.000;    0.000;-77.00000
 945.17;  -87.000;  -82.000;    0.000;-5.00000
 945.73;  -59.000;  -47.000;    0.000;-12.00000
 946.29;  -66.000;  -75.000;    0.000; 9.00000
 946.85;  -95.000; -114.000;    0.000;19.00000
 947.40; -103.000; -121.000;    0.000;18.00000
 947.96;  -75.000;  -34.000;    0.000;-41.00000
 948.52; -122.000;  -89.000;    0.000;-33.00000
 949.08; -103.000;  -52.000;    0.000;-51.00000
 949.64;   16.000;   26.000;    0.000;-10.00000
 950.20;  -89.000;  -25.000;    0.000;-64.00000
 950.76;  -62.000;  -50.000;    0.000;-12.00000
 951.32;  -83.000;  -83.000;    0.000; 0.00000
 951.87;  -80.000;  -63.000;    0.000;-17.00000
 952.43;  -24.000;   12.000;    0.000;-36.00000
 952.99;  -61.000;    2.000;    0.000;-63.00000
 953.55;  -85.000;  -28.000;    0.000;-57.00000
 954.11; -162.000; -127.000;    0.000;-35.00000
 954.67;  -76.000;  -56.000;    0.000;-20.00000
 955.22;  -58.000;  -53.000;    0.000;-5.00000
 955.78;   28.000;   30.000;    0.000;-2.00000
 956.34;  -49.000;  -15.000;    0.000;-34.00000
 956.90;  -53.000;  -80.000;    0.000;27.00000
 957.46; -134.000;  -89.000;    0.000;-45.00000
 958.01;  -23.000;   -9.000;    0.000;-14.00000
 958.57;  -48.000;  -72.000;    0.000;24.00000
 959.13;  -32.000;  -48.000;    0.000;16.00000
 959.69;  -95.000;  -47.000;    0.000;-48.00000
 960.25;  -47.000;  -71.000;    0.000;24.00000
 960.80;  -26.000;  -68.000;    0.000;42.00000
 961.36;  -48.000;  -47.000;    0.000;-1.00000
 961.92;  -84.000; -147.000;    0.000;63.00000
 962.48;  -97.000;  -90.000;    0.000;-7.00000
 963.03;  -22.000;  -77.000;    0.000;55.00000
 963.59;  -53.000;  -29.000;    0.000;-24.00000
 964.15;  -18.000;  -99.000;    0.000;81.00000
 964.71;   -8.000;  -46.000;    0.000;38.00000
 965.26;  -69.000;  -96.000;    0.000;27.00000
 965.82;  -63.000;  -53.000;    0.000;-10.00000
 966.38; -119.000;  -68.000;    0.000;-51.00000
 966.94;  -73.000;  -82.000;    0.000; 9.00000
 967.49;  -80.000;  -82.000;    0.000; 2.00000
 968.05;  -60.000; -143.000;    0.000;83.00000
 968.61;   56.000;   56.000;    0.000; 0.00000
 969.17;  -73.000;  -95.000;    0.000;22.00000
 969.72; -127.000; -108.000;    0.000;-19.00000
 970.28;   42.000;  -64.000;    0.000;106.00000
 970.84; -114.000;  -91.000;    0.000;-23.00000
 971.39;   -8.000;  -27.000;    0.000;19.00000
 971.95;  -43.000;  -95.000;    0.000;52.00000
 972.51;  -93.000; -107.000;    0.000;14.00000
 973.06;  -11.000;   13.000;    0.000;-24.00000
 973.62;   -7.000;  -18.000;    0.000;11.00000
 974.18;  -60.000;  -65.000;    0.000; 5.00000
 974.73; -105.000;  -78.000;    0.000;-27.00000
 975.29;   13.000;   57.000;    0.000;-44.00000
 975.85;  -23.000;  -36.000;    0.000;13.00000
 976.40;  -36.000;  -54.000;    0.000;18.00000
 976.96; -132.000;  -81.000;    0.000;-51.00000
 977.52;  -15.000;  -24.000;    0.000; 9.00000
 978.07;  -47.000;  -56.000;    0.000; 9.00000
 978.63;  -62.000;  -93.000;    0.000;31.00000
 979.19;  -48.000;  -22.000;    0.000;-26.00000
 979.74;  -28.000;  -30.000;    0.000; 2.00000
 980.30;  -79.000;  -95.000;    0.000;16.00000
 980.85;   26.000;  -17.000;    0.000;43.00000
 981.41; -127.000;  -69.000;    0.000;-58.00000
 981.97; -138.000;  -98.000;    0.000;-40.00000
 982.52; -132.000; -104.000;    0.000;-28.00000
 983.08;  -96.000;   -1.000;    0.000;-95.00000
 983.63;  -71.000;   13.000;    0.000;-84.00000
 984.19;  -24.000;  -84.000;    0.000;60.00000
 984.75; -137.000;  -90.000;    0.000;-47.00000
 985.30; -138.000; -105.000;    0.000;-33.00000
 985.86; -104.000;  -75.000;    0.000;-29.00000
 986.41;  -86.000; -131.000;    0.000;45.00000
 986.97;  -90.000; -119.000;    0.000;29.00000
 987.52; -131.000;  -74.000;    0.000;-57.00000
 988.08;  -89.000;  -99.000;    0.000;10.00000
 988.64; -130.000; -103.000;    0.000;-27.00000
 989.19;  -75.000; -112.000;    0.000;37.00000
 989.75;   29.000;  -19.000;    0.000;48.00000
 990.30; -177.000; -110.000;    0.000;-67.00000
 990.86;  -67.000;  -57.000;    0.000;-10.00000
 991.41;  -75.000;  -66.000;    0.000;-9.00000
 991.97;  -36.000;  -57.000;    0.000;21.00000
 992.52;  -87.000; -112.000;    0.000;25.00000
 993.08;  -55.000;  -80.000;    0.000;25.00000
 993.63;  -93.000; -115.000;    0.000;22.00000
 994.19;  -62.000;  -76.000;    0.000;14.00000
 994.74; -100.000; -111.000;    0.000;11.00000
 995.30; -172.000; -125.000;    0.000;-47.00000
 995.85; -139.000; -109.000;    0.000;-30.00000
 996.41;  -73.000;  -47.000;    0.000;-26.00000
 996.96;  -59.000;  -65.000;    0.000; 6.00000
 997.52;   58.000;   69.000;    0.000;-11.00000
 998.07;  -70.000;  -39.000;    0.000;-31.00000
 998.63;  -92.000; -126.000;    0.000;34.00000
 999.18;  -10.000;  -20.000;    0.000;10.00000
 999.74;  -78.000;  -88.000;    0.000;10.00000
1000.29;  -33.000; -110.000;    0.000;77.00000
1000.85;  -53.000;  -57.000;    0.000; 4.00000
1001.40;  -16.000;  -42.000;    0.000;26.00000
1001.96; -113.000;  -17.000;    0.000;-96.00000
1002.51;  -97.000;  -47.000;    0.000;-50.00000
1003.06; -143.000;  -94.000;    0.000;-49.00000
1003.62;   12.000;   21.000;    0.000;-9.00000
1004.17;  -70.000; -108.000;    0.000;38.00000
1004.73;  -76.000;  -95.000;    0.000;19.00000
1005.28;  125.000;   83.000;    0.000;42.00000
1005.83;  -83.000; -104.000;    0.000;21.00000
1006.39; -130.000; -107.000;    0.000;-23.00000
1006.94; -151.000; -103.000;    0.000;-48.00000
1007.50;  -30.000;  -39.000;    0.000; 9.00000
1008.05; -115.000;  -93.000;    0.000;-22.00000
1008.60;  -48.000;  -49.000;    0.000; 1.00000
1009.16;  -89.000;  -34.000;    0.000;-55.00000
1009.71; -102.000;  -11.000;    0.000;-91.00000
1010.27; -151.000; -134.000;    0.000;-17.00000
1010.82; -148.000;  -90.000;    0.000;-58.00000
1011.37;   18.000;  -17.000;    0.000;35.00000
1011.93;  -33.000;    2.000;    0.000;-35.00000
1012.48;    1.000;  -24.000;    0.000;25.00000
1013.03; -106.000; -102.000;    0.000;-4.00000
1013.59;  -32.000;  -70.000;    0.000;38.00000
1014.14; -139.000; -116.000;    0.000;-23.00000
1014.69; -112.000;  -80.000;    0.000;-32.00000
1015.25;   50.000;   81.000;    0.000;-31.00000
1015.80;   -1.000;  -40.000;    0.000;39.00000
1016.35; -120.000;  -74.000;    0.000;-46.00000
1016.91;  -95.000;  -93.000;    0.000;-2.00000
1017.46;  -78.000;  -71.000;    0.000;-7.00000
1018.01;  -47.000; -120.000;    0.000;73.00000
1018.57;  -91.000; -109.000;    0.000;18.00000
1019.12;  -32.000; -100.000;    0.000;68.00000
1019.67;   18.000;  -36.000;    0.000;54.00000
1020.23;   21.000;    0.000;    0.000;21.00000
1020.78; -108.000;  -87.000;    0.000;-21.00000
1021.33;  -85.000;  -27.000;    0.000;-58.00000
1021.88;  -86.000;  -39.000;    0.000;-47.00000
1022.44;   43.000;   27.000;    0.000;16.00000
1022.99;  -54.000;  -95.000;    0.000;41.00000
1023.54;  -90.000; -140.000;    0.000;50.00000
1024.09;   55.000;    5.000;    0.000;50.00000
1024.65;  -69.000;  -70.000;    0.000; 1.00000
1025.20;  -73.000;  -86.000;    0.000;13.00000
1025.75; -121.000; -112.000;    0.000;-9.00000
1026.30;  -75.000;  -23.000;    0.000;-52.00000
1026.86;  -64.000;  -82.000;    0.000;18.00000
1027.41;  -19.000;    6.000;    0.000;-25.00000
1027.96;  -66.000;  -88.000;    0.000;22.00000
1028.51;   11.000;   27.000;    0.000;-16.00000
1029.07; -143.000;  -72.000;    0.000;-71.00000
1029.62;  -76.000;  -96.000;    0.000;20.00000
1030.17;  -93.000;   34.000;    0.000;-127.00000
1030.72;  -19.000;  -13.000;    0.000;-6.00000
1031.27;  -80.000;  -29.000;    0.000;-51.00000
1031.83;  -70.000;  -51.000;    0.000;-19.00000
1032.38;    8.000;   -7.000;    0.000;15.00000
1032.93;  -13.000;  -64.000;    0.000;51.00000
1033.48;  -65.000;  -55.000;    0.000;-10.00000
1034.03;  -70.000;  -92.000;    0.000;22.00000
1034.58;  -55.000;  -52.000;    0.000;-3.00000
1035.14;  -40.000;  -85.000;    0.000;45.00000
1035.69; -110.000;  -73.000;    0.000;-37.00000
1036.24;  -67.000; -115.000;    0.000;48.00000
1036.79;  -85.000; -119.000;    0.000;34.00000
1037.34; -106.000;  -81.000;    0.000;-25.00000
1037.89;  -64.000; -129.000;    0.000;65.00000
1038.45;  -65.000; -122.000;    0.000;57.00000
1039.00; -101.000;  -28.000;    0.000;-73.00000
1039.55;  -53.000;  -61.000;    0.000; 8.00000
1040.10;    7.000;   11.000;    0.000;-4.00000
1040.65; -132.000;  -96.000;    0.000;-36.00000
1041.20;  -60.000; -102.000;    0.000;42.00000
1041.75;  -63.000; -103.000;    0.000;40.00000
1042.30;  -88.000; -105.000;    0.000;17.00000
1042.85;  -87.000;  -86.000;    0.000;-1.00000
1043.41;  -46.000;  -33.000;    0.000;-13.00000
1043.96; -100.000;  -98.000;    0.000;-2.00000
1044.51; -103.000;  -88.000;    0.000;-15.00000
1045.06;    8.000;   20.000;    0.000;-12.00000
1045.61; -129.000;  -54.000;    0.000;-75.00000
1046.16;    5.000;  -38.000;    0.000;43.00000
1046.71;  -54.000;  -68.000;    0.000;14.00000
1047.26;  -34.000;  -75.000;    0.000;41.00000
1047.81;  -26.000; -101.000;    0.000;75.00000
1048.36;  -67.000; -128.000;    0.000;61.00000
1048.91;  817.000;  740.000;    0.000;77.00000
1049.46;   91.000;   71.000;    0.000;20.00000
1050.01;  -99.000; -100.000;    0.000; 1.00000
1050.56; -167.000; -144.000;    0.000;-23.00000
1051.11;  -37.000;    5.000;    0.000;-42.00000
1051.66; -128.000;  -89.000;    0.000;-39.00000
1052.21;  -84.000;  -67.000;    0.000;-17.00000
1052.76;  -54.000;  -79.000;    0.000;25.00000
1053.31;  -69.000;  -53.000;    0.000;-16.00000
1053.86; -101.000;  -15.000;    0.000;-86.00000
1054.41; -122.000;  -45.000;    0.000;-77.00000
1054.96;  -62.000;  -63.000;    0.000; 1.00000
1055.51;  123.000;  140.000;    0.000;-17.00000
1056.06; -101.000;  -78.000;    0.000;-23.00000
1056.61;  -20.000;   66.000;    0.000;-86.00000
1057.16;  -51.000;  -48.000;    0.000;-3.00000
1057.71;  -47.000; -120.000;    0.000;73.00000
1058.26;  -63.000; -105.000;    0.000;42.00000
1058.81;  -32.000;   12.000;    0.000;-44.00000
1059.36; -120.000; -114.000;    0.000;-6.00000
1059.91;  -73.000;  -47.000;    0.000;-26.00000
1060.46;  -52.000;  -67.000;    0.000;15.00000
1061.01;  -79.000; -121.000;    0.000;42.00000
1061.56; -122.000;  -93.000;    0.000;-29.00000
1062.11;   -8.000;  -24.000;    0.000;16.00000
1062.66; -107.000;  -39.000;    0.000;-68.00000
1063.21; -108.000; -140.000;    0.000;32.00000
1063.76;  -92.000;  -42.000;    0.000;-50.00000
1064.31;  -95.000;  -71.000;    0.000;-24.00000
1064.86; -104.000;  -97.000;    0.000;-7.00000
1065.40;   17.000;   -6.000;    0.000;23.00000
1065.95;   40.000;  -21.000;    0.000;61.00000
1066.50; -126.000; -100.000;    0.000;-26.00000
1067.05;  -52.000;  -91.000;    0.000;39.00000
1067.60;   -4.000;   27.000;    0.000;-31.00000
1068.15;  -42.000;  -46.000;    0.000; 4.00000
1068.70;  -56.000;  -75.000;    0.000;19.00000
1069.25;  -61.000;  -79.000;    0.000;18.00000
1069.79;  -54.000;  -54.000;    0.000; 0.00000
1070.34;  -94.000; -116.000;    0.000;22.00000
1070.89;   37.000;   -8.000;    0.000;45.00000
1071.44;  -52.000;  -61.000;    0.000; 9.00000
1071.99;   86.000;   96.000;    0.000;-10.00000
1072.54;  -65.000;  -88.000;    0.000;23.00000
1073.09;  -85.000;  -19.000;    0.000;-66.00000
1073.63;  -52.000;  -43.000;    0.000;-9.00000
1074.18;  -50.000;  -17.000;    0.000;-33.00000
1074.73; -103.000;  -79.000;    0.000;-24.00000
1075.28;  -12.000;    1.000;    0.000;-13.00000
1075.83;  -61.000;  -89.000;    0.000;28.00000
1076.38;  -92.000; -122.000;    0.000;30.00000
1076.92;  -77.000;  -90.000;    0.000;13.00000
1077.47;  -53.000;  -28.000;    0.000;-25.00000
1078.02;  -28.000;   45.000;    0.000;-73.00000
1078.57;  -88.000; -107.000;    0.000;19.00000
1079.11;  -44.000;  -50.000;    0.000; 6.00000
1079.66; -126.000;  -86.000;    0.000;-40.00000
1080.21;  -77.000;  -73.000;    0.000;-4.00000
1080.76;  -14.000;  -18.000;    0.000; 4.00000
1081.31; -132.000; -103.000;    0.000;-29.00000
1081.85; -114.000;  -76.000;    0.000;-38.00000
1082.40;  -15.000;  -10.000;    0.000;-5.00000
1082.95;  -46.000; -109.000;    0.000;63.00000
1083.50;  -75.000;  -20.000;    0.000;-55.00000
1084.04; -142.000;  -68.000;    0.000;-74.00000
1084.59;  -45.000; -107.000;    0.000;62.00000
1085.14;  -95.000; -104.000;    0.000; 9.00000
1085.69;  -27.000;  -32.000;    0.000; 5.00000
1086.23;  -43.000;   -9.000;    0.000;-34.00000
1086.78;  -37.000;  -41.000;    0.000; 4.00000
1087.33;  -34.000;  -34.000;    0.000; 0.00000
1087.87;  -66.000;  -93.000;    0.000;27.00000
1088.42;  -19.000;  -27.000;    0.000; 8.00000
1088.97; -100.000;  -88.000;    0.000;-12.00000
1089.52;  -52.000;  -75.000;    0.000;23.00000
1090.06;  -93.000; -126.000;    0.000;33.00000
1090.61;  -85.000;  -45.000;    0.000;-40.00000
1091.16;  -50.000;  -85.000;    0.000;35.00000
1091.70;  -80.000;  -83.000;    0.000; 3.00000
1092.25;  -96.000;  -79.000;    0.000;-17.00000
1092.80;    0.000;  -80.000;    0.000;80.00000
1093.34;  -87.000;  -50.000;    0.000;-37.00000
1093.89; -111.000;  -51.000;    0.000;-60.00000
1094.44;   12.000;  -39.000;    0.000;51.00000
1094.98;   52.000;  -32.000;    0.000;84.00000
1095.53;  -20.000;  -67.000;    0.000;47.00000
1096.07;  -81.000;  -38.000;    0.000;-43.00000
1096.62;  -90.000;  -75.000;    0.000;-15.00000
1097.17;  -40.000;   -4.000;    0.000;-36.00000
1097.71; -112.000;  -23.000;    0.000;-89.00000
1098.26; -110.000; -132.000;    0.000;22.00000
1098.81;  -73.000;  -34.000;    0.000;-39.00000
1099.35;  -69.000; -102.000;    0.000;33.00000
1099.90;  -30.000;  -57.000;    0.000;27.00000
1100.44; -134.000; -172.000;    0.000;38.00000

