
Integration time [ms]: 1000.000
Averaging Nr. [scans]: 1
Smoothing Nr. [pixels]: 0
Data measured with spectrometer [name]: 1701237U1
Wave   ;Sample   ;Dark     ;Reference;Scope Corrected for Dark
[nm]   ;[counts] ;[counts] ;[counts] ;[counts] 

 173.88;  -15.702;  -33.000;    0.000;17.29810
 174.48;  -95.759;  -46.000;    0.000;-49.75908
 175.09;  -29.652;  -17.000;    0.000;-12.65175
 175.69;    8.292;    9.000;    0.000;-0.70846
 176.30;   25.197;   12.000;    0.000;13.19686
 176.90;  -63.968;  -29.000;    0.000;-34.96813
 177.51;  -52.588;   -4.000;    0.000;-48.58847
 178.11;   19.007;   27.000;    0.000;-7.99320
 178.72;  -81.107;  -75.000;    0.000;-6.10734
 179.32;  -40.310;  -41.000;    0.000; 0.69041
 179.93;  -12.202;  -16.000;    0.000; 3.79798
 180.54;  -34.626;  -23.000;    0.000;-11.62644
 181.14;    9.260;   46.000;    0.000;-36.73987
 181.75;  -12.785;   34.000;    0.000;-46.78463
 182.35;  -66.569;  -62.000;    0.000;-4.56949
 182.96;   21.798;   69.000;    0.000;-47.20225
 183.56;  -26.930;  -51.000;    0.000;24.07031
 184.17;  134.393;   90.000;    0.000;44.39278
 184.77;  -33.601;  -12.000;    0.000;-21.60113
 185.38;  -74.797;   -8.000;    0.000;-66.79705
 185.98;   39.114;  -19.000;    0.000;58.11436
 186.59;    4.912;   28.000;    0.000;-23.08835
 187.19;  -26.506;  -46.000;    0.000;19.49402
 187.80;   50.437;    3.000;    0.000;47.43731
 188.40;   45.127;  -37.000;    0.000;82.12749
 189.01;   -9.879;  -12.000;    0.000; 2.12069
 189.61;  -39.215;  -25.000;    0.000;-14.21491
 190.21;  -47.582;  -74.000;    0.000;26.41833
 190.82;  -48.291;  -22.000;    0.000;-26.29060
 191.42;   31.077;  -25.000;    0.000;56.07663
 192.03; -100.082;   25.000;    0.000;-125.08156
 192.63;   -6.468;  -45.000;    0.000;38.53246
 193.24;    8.139;   16.000;    0.000;-7.86056
 193.84;  -23.164;  -50.000;    0.000;26.83642
 194.45;   14.488;  -26.000;    0.000;40.48816
 195.05;  -13.303;  -30.000;    0.000;16.69674
 195.66;  -31.240;   -8.000;    0.000;-23.23975
 196.26;  -24.296;   23.000;    0.000;-47.29646
 196.87;    0.216;   18.000;    0.000;-17.78393
 197.47;  -14.075;  -52.000;    0.000;37.92477
 198.07;   -6.176; -122.000;    0.000;115.82376
 198.68; -100.423;  -37.000;    0.000;-63.42302
 199.28;   -9.588;  -42.000;    0.000;32.41200
 199.89;    2.501;    4.000;    0.000;-1.49871
 200.49;   17.792;    7.000;    0.000;10.79212
 201.10;  -10.284;   16.000;    0.000;-26.28404
 201.70;   18.476;   46.000;    0.000;-27.52426
 202.31;   -7.981;  -50.000;    0.000;42.01945
 202.91;   -9.025;   31.000;    0.000;-40.02484
 203.51;  -40.354;   -5.000;    0.000;-35.35365
 204.12;  -22.468;   15.000;    0.000;-37.46824
 204.72;   29.798;   34.000;    0.000;-4.20225
 205.33;  -27.987;  -26.000;    0.000;-1.98688
 205.93;  -70.455;  -11.000;    0.000;-59.45512
 206.53;  -47.740; -100.000;    0.000;52.26013
 207.14;  -87.639;  -51.000;    0.000;-36.63862
 207.74;  -53.506;  -34.000;    0.000;-19.50574
 208.35;  -10.101;  -78.000;    0.000;67.89946
 208.95;   -7.601;    3.000;    0.000;-10.60066
 209.55;   90.355;  177.000;    0.000;-86.64495
 210.16;  -92.094;  -79.000;    0.000;-13.09421
 210.76;    7.077;   28.000;    0.000;-20.92337
 211.37;  -32.797;  -54.000;    0.000;21.20319
 211.97;  -42.816;  -15.000;    0.000;-27.81603
 212.57;  -18.088;  -33.000;    0.000;14.91235
 213.18;  -46.284;  -66.000;    0.000;19.71596
 213.78;  -69.689;  -21.000;    0.000;-48.68901
 214.38;   94.431;  102.000;    0.000;-7.56902
 214.99;   39.716;   -9.000;    0.000;48.71596
 215.59;  -32.860;  -53.000;    0.000;20.14014
 216.20;  -26.240;  -78.000;    0.000;51.76049
 216.80;  -51.005;  -39.000;    0.000;-12.00539
 217.40;   20.899;    0.000;    0.000;20.89946
 218.01;  -33.505;  -13.000;    0.000;-20.50528
 218.61;  -20.626;  -50.000;    0.000;29.37427
 219.21;  -69.620;  -44.000;    0.000;-25.61964
 219.82;  167.241;   59.000;    0.000;108.24115
 220.42;  -32.879;  -77.000;    0.000;44.12093
 221.02;  -56.309;  -40.000;    0.000;-16.30888
 221.63;  -22.777;  -46.000;    0.000;23.22287
 222.23;  -33.866;  -91.000;    0.000;57.13382
 222.83;  -21.898;  -45.000;    0.000;23.10194
 223.44;  -25.987;  -82.000;    0.000;56.01312
 224.04;   -5.840;  -39.000;    0.000;33.15959
 224.64;  -15.347;  -60.000;    0.000;44.65292
 225.25;   30.165;   14.000;    0.000;16.16522
 225.85;  -62.246;  -50.000;    0.000;-12.24631
 226.45;  -11.879;  -12.000;    0.000; 0.12116
 227.06;   63.754;   77.000;    0.000;-13.24608
 227.66;  105.292;   79.000;    0.000;26.29177
 228.26;    0.450;  -12.000;    0.000;12.45020
 228.87;   -5.613;  -34.000;    0.000;28.38692
 229.47;   45.931;   37.000;    0.000; 8.93110
 230.07;  -32.822;  -24.000;    0.000;-8.82189
 230.68;   71.247;   88.000;    0.000;-16.75275
 231.28;  -54.088;   -7.000;    0.000;-47.08765
 231.88;  164.311;  108.000;    0.000;56.31099
 232.48;  -44.050;    8.000;    0.000;-52.05015
 233.09;  -63.360;    7.000;    0.000;-70.36021
 233.69;  -42.974;  -79.000;    0.000;36.02601
 234.29;   83.102;   37.000;    0.000;46.10194
 234.90;  -34.005;   35.000;    0.000;-69.00539
 235.50;   10.046;  -67.000;    0.000;77.04570
 236.10;  -41.803;  -81.000;    0.000;39.19686
 236.70;    9.191;   21.000;    0.000;-11.80924
 237.31;  -39.189;  -38.000;    0.000;-1.18889
 237.91; -114.037;    4.000;    0.000;-118.03703
 238.51;  -76.392;  -64.000;    0.000;-12.39185
 239.11;  -44.221;  -52.000;    0.000; 7.77853
 239.72;  -56.569;  -64.000;    0.000; 7.43145
 240.32;  -77.430;  -82.000;    0.000; 4.56995
 240.92;   23.172;   25.000;    0.000;-1.82822
 241.53;  -76.550;   21.000;    0.000;-97.54957
 242.13;    4.621;   29.000;    0.000;-24.37896
 242.73;  -65.759;   13.000;    0.000;-78.75885
 243.33;   27.082;  -48.000;    0.000;75.08249
 243.93;    6.944;  -41.000;    0.000;47.94399
 244.54;  -33.069;  -46.000;    0.000;12.93110
 245.14;  -58.354;  -35.000;    0.000;-23.35365
 245.74;   42.083;   44.000;    0.000;-1.91681
 246.34;  -14.619;  -11.000;    0.000;-3.61941
 246.95;  -69.233;  -79.000;    0.000; 9.76681
 247.55;  -59.651;  -76.000;    0.000;16.34895
 248.15;   -5.113;  -58.000;    0.000;52.88727
 248.75;   25.380;   11.000;    0.000;14.38036
 249.36;   26.932;  -60.000;    0.000;86.93157
 249.96;  -27.329;  -23.000;    0.000;-4.32857
 250.56;    6.349;  -15.000;    0.000;21.34895
 251.16;  -29.809;  -40.000;    0.000;10.19053
 251.76;   26.507;    3.000;    0.000;23.50715
 252.37;  -19.468;   35.000;    0.000;-54.46778
 252.97;  -42.354;  -12.000;    0.000;-30.35365
 253.57;  -25.069;  -13.000;    0.000;-12.06890
 254.17;   19.874;   45.000;    0.000;-25.12562
 254.77;   65.469;    0.000;    0.000;65.46895
 255.38;  -49.151;  -69.000;    0.000;19.84907
 255.98;  -73.114;   -9.000;    0.000;-64.11366
 256.58;  -15.518;   43.000;    0.000;-58.51840
 257.18;  -72.316;  -27.000;    0.000;-45.31568
 257.78;  -45.170;  -35.000;    0.000;-10.17014
 258.38;  -50.101;  -24.000;    0.000;-26.10054
 258.99;  -42.101;  -47.000;    0.000; 4.89923
 259.59;   16.178;  -18.000;    0.000;34.17788
 260.19;  -72.790;  -38.000;    0.000;-34.79025
 260.79;    6.311;   37.000;    0.000;-30.68901
 261.39;   67.862;  113.000;    0.000;-45.13827
 261.99;  -63.341;  -51.000;    0.000;-12.34076
 262.60;  -49.100;  -68.000;    0.000;18.89969
 263.20;  -42.943; -102.000;    0.000;59.05742
 263.80;   -8.600;  -56.000;    0.000;47.40004
 264.40;  -66.569;  -95.000;    0.000;28.43121
 265.00;    0.887;   16.000;    0.000;-15.11320
 265.60;  -57.797;  -19.000;    0.000;-38.79681
 266.20;    2.633;   12.000;    0.000;-9.36654
 266.81;  -46.885;  -17.000;    0.000;-29.88540
 267.41;  -77.961;   -8.000;    0.000;-69.96110
 268.01;   48.741;   69.000;    0.000;-20.25897
 268.61;  -42.094;  -82.000;    0.000;39.90602
 269.21;  -88.258;  -87.000;    0.000;-1.25850
 269.81;  -49.886;   -9.000;    0.000;-40.88564
 270.41;    2.944;   13.000;    0.000;-10.05625
 271.01;   13.260;  -36.000;    0.000;49.26037
 271.62;   53.893;  -24.000;    0.000;77.89290
 272.22;  -60.430;  -78.000;    0.000;17.57019
 272.82;   37.457;   12.000;    0.000;25.45652
 273.42;   15.564;   18.000;    0.000;-2.43591
 274.02;  -48.847;  -53.000;    0.000; 4.15256
 274.62;  -42.695;  -69.000;    0.000;26.30490
 275.22;  -66.341;  -62.000;    0.000;-4.34122
 275.82;  -82.031;  -49.000;    0.000;-33.03070
 276.42;  -40.936;  -64.000;    0.000;23.06421
 277.02;  -25.297; -101.000;    0.000;75.70307
 277.63;    4.273;   52.000;    0.000;-47.72698
 278.23;  -97.702;  -42.000;    0.000;-55.70167
 278.83;  -10.151;    8.000;    0.000;-18.15093
 279.43;  -11.012;   63.000;    0.000;-74.01172
 280.03;   30.766;  -18.000;    0.000;48.76611
 280.63;  -13.430;  -65.000;    0.000;51.57042
 281.23;   60.697;   52.000;    0.000; 8.69697
 281.83;  -63.613;  -33.000;    0.000;-30.61285
 282.43; 2286.545; 2084.000;    0.000;202.54511
 283.03;   51.045;   68.000;    0.000;-16.95501
 283.63;  -47.676;  -34.000;    0.000;-13.67636
 284.23;  -62.202;  -37.000;    0.000;-25.20155
 284.83;   19.723;   -4.000;    0.000;23.72252
 285.43;   16.007;    1.000;    0.000;15.00703
 286.03;  -75.772;  -55.000;    0.000;-20.77174
 286.63;  -39.695;  -42.000;    0.000; 2.30466
 287.23;   20.956;  -76.000;    0.000;96.95641
 287.84;  -88.493;  -33.000;    0.000;-55.49309
 288.44;  -45.759;  -43.000;    0.000;-2.75885
 289.04;  -63.069;  -58.000;    0.000;-5.06914
 289.64;  -53.727;  -20.000;    0.000;-33.72721
 290.24;  -72.195;   -7.000;    0.000;-65.19475
 290.84;  -66.791;  -64.000;    0.000;-2.79095
 291.44;  -17.943;   26.000;    0.000;-43.94258
 292.04;  -56.278;    0.000;    0.000;-56.27818
 292.64;  -16.525;  -17.000;    0.000; 0.47527
 293.24;  -19.867;   17.000;    0.000;-36.86665
 293.84;  -52.835; -109.000;    0.000;56.16545
 294.44;  -24.664;  -20.000;    0.000;-4.66370
 295.04;  -76.544;  -59.000;    0.000;-17.54371
 295.64;  -33.500;  -60.000;    0.000;26.50035
 296.24;  -64.563;  -40.000;    0.000;-24.56293
 296.84;    8.931;  -14.000;    0.000;22.93086
 297.44;  -44.126;  -85.000;    0.000;40.87415
 298.04; -126.759;  -43.000;    0.000;-83.75932
 298.64; -101.670;  -65.000;    0.000;-36.67050
 299.24;  -75.537;  -15.000;    0.000;-60.53715
 299.84;    9.317;   10.000;    0.000;-0.68315
 300.44;    2.336;  -38.000;    0.000;40.33607
 301.04;  -54.038;  -16.000;    0.000;-38.03773
 301.64;  -58.752;  -26.000;    0.000;-32.75229
 302.24;  -47.189;  -62.000;    0.000;14.81087
 302.83;  -53.873;  -40.000;    0.000;-13.87321
 303.43;  -81.562;  -30.000;    0.000;-51.56246
 304.03;  -49.448;  -97.000;    0.000;47.55167
 304.63;  -42.303;  -10.000;    0.000;-32.30326
 305.23; -123.645;  -22.000;    0.000;-101.64495
 305.83;  -63.936; -109.000;    0.000;45.06398
 306.43;  -24.993;  -82.000;    0.000;57.00703
 307.03;   -8.632;    7.000;    0.000;-15.63206
 307.63;   42.096;   12.000;    0.000;30.09562
 308.23;   15.526;   62.000;    0.000;-46.47387
 308.83;  -14.771;  -12.000;    0.000;-2.77127
 309.43;  -73.733;   -8.000;    0.000;-65.73307
 310.03;  -15.948;  -64.000;    0.000;48.05179
 310.63;  -36.208;  -45.000;    0.000; 8.79212
 311.23;  -12.062;    8.000;    0.000;-20.06211
 311.83;    2.956;  -15.000;    0.000;17.95641
 312.43;  -77.088;   13.000;    0.000;-90.08812
 313.02;  -17.936;    5.000;    0.000;-22.93579
 313.62;  -25.708;  -58.000;    0.000;32.29177
 314.22;  -15.195;  -13.000;    0.000;-2.19546
 314.82;   15.963;   61.000;    0.000;-45.03703
 315.42;  -12.879;   36.000;    0.000;-48.87861
 316.02;   17.843;   -7.000;    0.000;24.84274
 316.62;   -7.568;  -24.000;    0.000;16.43168
 317.22;  -22.037;  -92.000;    0.000;69.96320
 317.82;  -46.556;  -50.000;    0.000; 3.44410
 318.42;  298.266;  249.000;    0.000;49.26646
 319.01;  -75.689;  -62.000;    0.000;-13.68878
 319.61;  -23.062;    1.000;    0.000;-24.06211
 320.21;  -47.607;  -35.000;    0.000;-12.60652
 320.81;   29.508;  -28.000;    0.000;57.50785
 321.41;  -20.936;   44.000;    0.000;-64.93602
 322.01;  -48.094;  -88.000;    0.000;39.90602
 322.61;  -26.891;  -28.000;    0.000; 1.10897
 323.21;  -36.910;  -89.000;    0.000;52.08976
 323.80;  -96.701;  -97.000;    0.000; 0.29857
 324.40;  -39.182;  -59.000;    0.000;19.81814
 325.00;  -68.106; -107.000;    0.000;38.89383
 325.60;   -0.973;  -35.000;    0.000;34.02671
 326.20;  -19.404;  -35.000;    0.000;15.59620
 326.80;  -51.201; -100.000;    0.000;48.79892
 327.40;  -43.498;  -32.000;    0.000;-11.49825
 327.99;  -23.219;  -29.000;    0.000; 5.78064
 328.59; -101.624;  -38.000;    0.000;-63.62433
 329.19;  379.376;  305.000;    0.000;74.37590
 329.79;    6.559;   19.000;    0.000;-12.44060
 330.39;   59.952;   73.000;    0.000;-13.04805
 330.99;  -47.472;    5.000;    0.000;-52.47223
 331.58;   -0.991;  -52.000;    0.000;51.00913
 332.18;  -18.396;  -58.000;    0.000;39.60440
 332.78;   30.212;   34.000;    0.000;-3.78791
 333.38;    5.637;   66.000;    0.000;-60.36350
 333.98;  -67.402;  -73.000;    0.000; 5.59830
 334.57;   19.877;   -5.000;    0.000;24.87695
 335.17;  -11.275;  -62.000;    0.000;50.72486
 335.77;  -41.585;   28.000;    0.000;-69.58543
 336.37;  110.972;  122.000;    0.000;-11.02813
 336.97;  -21.390;  -45.000;    0.000;23.61049
 337.56;  -32.105;  -84.000;    0.000;51.89547
 338.16;   16.490;  -12.000;    0.000;28.49027
 338.76;   43.015;   17.000;    0.000;26.01499
 339.36;  -18.206;  -66.000;    0.000;47.79376
 339.96;   50.357;   26.000;    0.000;24.35692
 340.55;   -6.498;   11.000;    0.000;-17.49754
 341.15;  -18.681;  -31.000;    0.000;12.31895
 341.75;   41.807;   58.000;    0.000;-16.19335
 342.35;  -54.282;  -92.000;    0.000;37.71806
 342.94;   36.630;   74.000;    0.000;-37.36982
 343.54;  -30.073;    6.000;    0.000;-36.07289
 344.14;  -59.313;  -74.000;    0.000;14.68666
 344.74;  -86.364;   -4.000;    0.000;-82.36373
 345.33;   48.402;   25.000;    0.000;23.40168
 345.93;   32.452;   -4.000;    0.000;36.45230
 346.53;  -60.181;  -50.000;    0.000;-10.18093
 347.13;    2.231;  -44.000;    0.000;46.23060
 347.72;  -29.535;  -39.000;    0.000; 9.46519
 348.32;   24.528;  -35.000;    0.000;59.52800
 348.92;  -22.219;   17.000;    0.000;-39.21866
 349.52;   10.395;  -58.000;    0.000;68.39535
 350.11;   48.206;   81.000;    0.000;-32.79448
 350.71;  -22.662;  -35.000;    0.000;12.33817
 351.31;  -35.111;  -22.000;    0.000;-13.11133
 351.91;  -71.244;  -95.000;    0.000;23.75579
 352.50;   33.585;  -34.000;    0.000;67.58495
 353.10;  -21.731;   -9.000;    0.000;-12.73143
 353.70;   -9.966;  -52.000;    0.000;42.03398
 354.29;  367.117;  362.000;    0.000; 5.11670
 354.89;    8.604;  -56.000;    0.000;64.60440
 355.49;  -20.295;  -92.000;    0.000;71.70494
 356.09;   42.060;   13.000;    0.000;29.05999
 356.68;  -22.339;  -59.000;    0.000;36.66088
 357.28;  -54.750;  -46.000;    0.000;-8.74995
 357.88;  -25.440;  -53.000;    0.000;27.56011
 358.47;  -77.067;  -81.000;    0.000; 3.93320
 359.07;  -16.326;   51.000;    0.000;-67.32647
 359.67;  -71.573;  -42.000;    0.000;-29.57324
 360.26;   -6.744;  -26.000;    0.000;19.25591
 360.86;  -36.706;   -7.000;    0.000;-29.70589
 361.46;  -37.244;    6.000;    0.000;-43.24444
 362.05;    6.351;    1.000;    0.000; 5.35106
 362.65;  -31.403;  -40.000;    0.000; 8.59737
 363.25;  -48.422;  -50.000;    0.000; 1.57839
 363.84;   32.718;   -1.000;    0.000;33.71760
 364.44;   14.901;    0.000;    0.000;14.90133
 365.04;  -52.251;  -21.000;    0.000;-31.25053
 365.63;  -25.928;  -71.000;    0.000;45.07218
 366.23;  -16.219;  -16.000;    0.000;-0.21913
 366.83;  -51.909;  -53.000;    0.000; 1.09116
 367.42;   -4.067;  -95.000;    0.000;90.93320
 368.02;  -91.978; -107.000;    0.000;15.02155
 368.62;   61.693;   33.000;    0.000;28.69275
 369.21;   24.895;    3.000;    0.000;21.89524
 369.81;  239.167;  192.000;    0.000;47.16732
 370.41; -102.897;  -42.000;    0.000;-60.89665
 371.00;   -0.516;  -23.000;    0.000;22.48417
 371.60;   29.997;  -24.000;    0.000;53.99671
 372.19;   14.243;  -20.000;    0.000;34.24326
 372.79;  -71.042;  -29.000;    0.000;-42.04196
 373.39;   97.205;    2.000;    0.000;95.20506
 373.98;  -14.301;  -16.000;    0.000; 1.69908
 374.58;  -10.295;   37.000;    0.000;-47.29483
 375.17;    4.744;  -37.000;    0.000;41.74384
 375.77;   94.629;   34.000;    0.000;60.62947
 376.37;  -46.567;  -56.000;    0.000; 9.43332
 376.96;  113.655;   -3.000;    0.000;116.65479
 377.56;   60.927;   -8.000;    0.000;68.92664
 378.15;    5.636;  -24.000;    0.000;29.63557
 378.75;   18.573;  -24.000;    0.000;42.57253
 379.35;   23.851;  -23.000;    0.000;46.85094
 379.94;   92.180;  -18.000;    0.000;110.18021
 380.54;    5.693;  -33.000;    0.000;38.69299
 381.13;  -82.453;  -35.000;    0.000;-47.45278
 381.73;   -3.327;  -63.000;    0.000;59.67330
 382.32;  -15.479;  -68.000;    0.000;52.52120
 382.92;  -46.200;  -78.000;    0.000;31.80032
 383.52;  -12.371;  -47.000;    0.000;34.62924
 384.11;    9.750;   -3.000;    0.000;12.74970
 384.71;   47.630;    4.000;    0.000;43.62971
 385.30;   75.073;  -25.000;    0.000;100.07264
 385.90;   14.895;   20.000;    0.000;-5.10476
 386.49;   51.851;  -25.000;    0.000;76.85118
 387.09;  113.370;   48.000;    0.000;65.37028
 387.68;   72.338;   13.000;    0.000;59.33817
 388.28;   32.224; -103.000;    0.000;135.22427
 388.87;  246.850;  171.000;    0.000;75.85047
 389.47;    8.807;  -41.000;    0.000;49.80688
 390.07;  110.807;  -11.000;    0.000;121.80665
 390.66;   -5.232;  -38.000;    0.000;32.76845
 391.26;   66.187;  -43.000;    0.000;109.18654
 391.85;   13.655;  -41.000;    0.000;54.65479
 392.45;   51.376;  -16.000;    0.000;67.37637
 393.04;   86.243;   -6.000;    0.000;92.24302
 393.64;   22.699;  -90.000;    0.000;112.69884
 394.23;  104.914;   -6.000;    0.000;110.91422
 394.83;   68.705;  -38.000;    0.000;106.70517
 395.42;   93.921;    9.000;    0.000;84.92101
 396.02;   49.034;    4.000;    0.000;45.03421
 396.61;   59.491;  -70.000;    0.000;129.49050
 397.21;   47.832;   12.000;    0.000;35.83196
 397.80;11352.148;10838.000;    0.000;514.14834
 398.40;  248.870;   49.000;    0.000;199.86993
 398.99;   89.933;  -25.000;    0.000;114.93320
 399.59;   92.876;    6.000;    0.000;86.87649
 400.18;   60.098;  -27.000;    0.000;87.09772
 400.78;  105.288;  -36.000;    0.000;141.28755
 401.37;  125.768;  -24.000;    0.000;149.76822
 401.96;  115.440;  -38.000;    0.000;153.43965
 402.56;  121.281;  -72.000;    0.000;193.28122
 403.15;   75.148;  -21.000;    0.000;96.14834
 403.75;   99.199;   51.000;    0.000;48.19873
 404.34;  152.579;   -3.000;    0.000;155.57885
 404.94;   31.851;  -60.000;    0.000;91.85094
 405.53;   85.275; -133.000;    0.000;218.27513
 406.13;  162.022;  -27.000;    0.000;189.02202
 406.72;  117.483;  -42.000;    0.000;159.48347
 407.32;   73.908;  -46.000;    0.000;119.90789
 407.91;  195.294;  -31.000;    0.000;226.29388
 408.50;   95.211;  -49.000;    0.000;144.21115
 409.10;  127.307;  -61.000;    0.000;188.30653
 409.69;  175.319;   36.000;    0.000;139.31895
 410.29;  201.047;  -50.000;    0.000;251.04687
 410.88;  199.395;  -26.000;    0.000;225.39512
 411.47;  139.148;  -70.000;    0.000;209.14811
 412.07;  154.116;  -45.000;    0.000;199.11647
 412.66;  207.028;  -15.000;    0.000;222.02788
 413.26;  145.623;  -70.000;    0.000;215.62268
 413.85;  172.831;  -76.000;    0.000;248.83149
 414.45;  361.490;  114.000;    0.000;247.49003
 415.04;  181.718;  -72.000;    0.000;253.71760
 415.63;  233.477;   24.000;    0.000;209.47738
 416.23;  219.452;  -50.000;    0.000;269.45207
 416.82;  281.053;  -35.000;    0.000;316.05343
 417.41;  296.382;   -4.000;    0.000;300.38200
 418.01;  226.743;  -43.000;    0.000;269.74314
 418.60;  239.946; -105.000;    0.000;344.94586
 419.20;  208.180;    6.000;    0.000;202.17975
 419.79;  241.819;   -5.000;    0.000;246.81884
 420.38;  188.382;  -41.000;    0.000;229.38223
 420.98;  199.850;  -81.000;    0.000;280.85047
 421.57;  286.958;  -67.000;    0.000;353.95828
 422.16;  279.496;  -32.000;    0.000;311.49589
 422.76;  238.610;  -65.000;    0.000;303.60979
 423.35;  260.452;  -70.000;    0.000;330.45183
 423.94;  335.369;   79.000;    0.000;256.36934
 424.54;  294.863;   -5.000;    0.000;299.86290
 425.13;  386.604;   53.000;    0.000;333.60393
 425.73;  369.009;   14.000;    0.000;355.00867
 426.32;  298.363;  -36.000;    0.000;334.36325
 426.91;  370.977;   -4.000;    0.000;374.97679
 427.51;  415.464;  121.000;    0.000;294.46402
 428.10;  490.534;   51.000;    0.000;439.53386
 428.69;  325.445;  -28.000;    0.000;353.44527
 429.28;  352.667;  -59.000;    0.000;411.66721
 429.88;  395.616;  -39.000;    0.000;434.61635
 430.47;  436.394;   -3.000;    0.000;439.39442
 431.06;  422.509;   15.000;    0.000;407.50855
 431.66;  345.977;  -27.000;    0.000;372.97679
 432.25;  304.521;  -82.000;    0.000;386.52120
 432.84;  393.742;  -63.000;    0.000;456.74244
 433.44;  405.452;   -6.000;    0.000;411.45183
 434.03;  446.667;  -76.000;    0.000;522.66651
 434.62;  535.597;   36.000;    0.000;499.59714
 435.22;  469.122;   40.000;    0.000;429.12186
 435.81;  460.015;   -6.000;    0.000;466.01476
 436.40;  469.109;  -40.000;    0.000;509.10944
 436.99;  435.622;  -61.000;    0.000;496.62245
 437.59;  555.034;  -33.000;    0.000;588.03374
 438.18;  539.901;   -5.000;    0.000;544.90063
 438.77;  508.116; -102.000;    0.000;610.11577
 439.36;  548.705;  -83.000;    0.000;631.70471
 439.96;  602.976;  118.000;    0.000;484.97633
 440.55;  453.382;  -89.000;    0.000;542.38176
 441.14;  583.052;    6.000;    0.000;577.05249
 441.73;  649.395;   80.000;    0.000;569.39489
 442.33;  602.249;   -9.000;    0.000;611.24912
 442.92;  685.590;   76.000;    0.000;609.59034
 443.51;  491.350;   16.000;    0.000;475.35012
 444.10;  657.806;   52.000;    0.000;605.80595
 444.70;  497.685;  -33.000;    0.000;530.68526
 445.29;  572.281;  -23.000;    0.000;595.28075
 445.88;  677.065;   -3.000;    0.000;680.06538
 446.47;  606.704;   41.000;    0.000;565.70424
 447.07;  613.331;  -17.000;    0.000;630.33091
 447.66;  702.806;   63.000;    0.000;639.80595
 448.25;  731.894;   11.000;    0.000;720.89430
 448.84;  662.654;   38.000;    0.000;624.65385
 449.43;  699.761;   -7.000;    0.000;706.76095
 450.03;  731.680;   71.000;    0.000;660.67963
 450.62;  629.597;  -20.000;    0.000;649.59714
 451.21;  778.135;   35.000;    0.000;743.13522
 451.80;  878.780;  118.000;    0.000;760.78040
 452.39;  781.356;  -20.000;    0.000;801.35622
 452.99;  726.995;    6.000;    0.000;720.99531
 453.58;  693.761;   13.000;    0.000;680.76119
 454.17;  791.394;   -8.000;    0.000;799.39372
 454.76;  918.622;   46.000;    0.000;872.62174
 455.35;  834.900;   79.000;    0.000;755.90039
 455.95;  786.806;  -38.000;    0.000;824.80571
 456.54;  861.672;  -59.000;    0.000;920.67237
 457.13;  860.015;    9.000;    0.000;851.01453
 457.72;  940.204;  -46.000;    0.000;986.20389
 458.31;  842.894;  -63.000;    0.000;905.89383
 458.90; 1007.331;   84.000;    0.000;923.33091
 459.50;  961.983;  -32.000;    0.000;993.98289
 460.09;  990.451;  -27.000;    0.000;1017.45137
 460.68;  989.628;  -60.000;    0.000;1049.62831
 461.27; 1058.337;  -31.000;    0.000;1089.33724
 461.86;  972.071;  -21.000;    0.000;993.07124
 462.45; 1185.647;  -15.000;    0.000;1200.64659
 463.04; 1093.154;  -58.000;    0.000;1151.15373
 463.64; 1244.761;   23.000;    0.000;1221.76072
 464.23; 1201.451;   12.000;    0.000;1189.45113
 464.82; 1098.236;   46.000;    0.000;1052.23576
 465.41; 1222.710;  -64.000;    0.000;1286.70986
 466.00; 1123.274;  -58.000;    0.000;1181.27373
 466.59; 1250.223;  -69.000;    0.000;1319.22264
 467.18; 1208.603;  -23.000;    0.000;1231.60253
 467.77; 1173.679;  -52.000;    0.000;1225.67869
 468.37; 1289.363;  -55.000;    0.000;1344.36255
 468.96; 1299.337;  -18.000;    0.000;1317.33724
 469.55; 1420.135;   10.000;    0.000;1410.13452
 470.14; 1297.432; -112.000;    0.000;1409.43215
 470.73; 1438.685;  -19.000;    0.000;1457.68549
 471.32; 1427.641;  -10.000;    0.000;1437.64073
 471.91; 1397.071;  -58.000;    0.000;1455.07101
 472.50; 1374.439;  -38.000;    0.000;1412.43871
 473.09; 1435.248;  -33.000;    0.000;1468.24795
 473.68; 1422.793;   48.000;    0.000;1374.79306
 474.27; 1442.868;  -48.000;    0.000;1490.86829
 474.86; 1454.356;  -32.000;    0.000;1486.35598
 475.46; 1631.229;  -48.000;    0.000;1679.22920
 476.05; 1666.172;   53.000;    0.000;1613.17225
 476.64; 1725.457;  -33.000;    0.000;1758.45699
 477.23; 1577.679;  -57.000;    0.000;1634.67869
 477.82; 1672.204;  -11.000;    0.000;1683.20389
 478.41; 1612.255;  -55.000;    0.000;1667.25451
 479.00; 1622.704;  -29.000;    0.000;1651.70400
 479.59; 1847.698;  -43.000;    0.000;1890.69791
 480.18; 1929.837;   20.000;    0.000;1909.83665
 480.77; 1811.761;  -90.000;    0.000;1901.76072
 481.36; 1886.805;  -27.000;    0.000;1913.80501
 481.95; 2007.546;  -15.000;    0.000;2022.54581
 482.54; 1999.211;  -65.000;    0.000;2064.21068
 483.13; 2118.400;  -49.000;    0.000;2167.40028
 483.72; 2157.178;  -90.000;    0.000;2247.17834
 484.31; 2110.318;  -68.000;    0.000;2178.31778
 484.90; 2122.520;  -57.000;    0.000;2179.52027
 485.49; 2220.995;  -55.000;    0.000;2275.99461
 486.08; 2313.083;  -68.000;    0.000;2381.08343
 486.67; 2344.558;   30.000;    0.000;2314.55800
 487.26; 2340.438;  -49.000;    0.000;2389.43778
 487.85; 2436.425;  -51.000;    0.000;2487.42535
 488.44; 2369.419;  -63.000;    0.000;2432.41926
 489.03; 2557.875;  -15.000;    0.000;2572.87462
 489.62; 2531.514;  -58.000;    0.000;2589.51371
 490.21; 2522.716; -101.000;    0.000;2623.71643
 490.80; 2729.381;   31.000;    0.000;2698.38083
 491.39; 2722.697;  -76.000;    0.000;2798.69744
 491.98; 2760.185;   43.000;    0.000;2717.18467
 492.57; 2754.292;   66.000;    0.000;2688.29201
 493.16; 2710.906;  -30.000;    0.000;2740.90649
 493.75; 2847.020;  -45.000;    0.000;2892.02039
 494.34; 2807.406;   11.000;    0.000;2796.40637
 494.93; 2887.862;  -35.000;    0.000;2922.86173
 495.52; 2917.900;  -56.000;    0.000;2973.90016
 496.11; 2952.115;  -64.000;    0.000;3016.11530
 496.70; 2856.552;  -16.000;    0.000;2872.55238
 497.29; 3064.261;  -15.000;    0.000;3079.26084
 497.88; 3069.773;   11.000;    0.000;3058.77337
 498.47; 3130.919;   47.000;    0.000;3083.91891
 499.06; 3159.925;   57.000;    0.000;3102.92547
 499.64; 3129.153;   -9.000;    0.000;3138.15303
 500.23; 3204.362;   33.000;    0.000;3171.36208
 500.82; 3089.571;  -15.000;    0.000;3104.57089
 501.41; 3264.375;   66.000;    0.000;3198.37497
 502.00; 3148.995;  -28.000;    0.000;3176.99508
 502.59; 3164.716;   24.000;    0.000;3140.71643
 503.18; 3125.476;  -20.000;    0.000;3145.47598
 503.77; 3169.501;   41.000;    0.000;3128.50129
 504.36; 3345.830;    2.000;    0.000;3343.83032
 504.95; 3379.628;  -17.000;    0.000;3396.62784
 505.54; 3213.305;   31.000;    0.000;3182.30513
 506.12; 3507.520;  195.000;    0.000;3312.52027
 506.71; 3215.533;   38.000;    0.000;3177.53292
 507.30; 3480.097;  104.000;    0.000;3376.09655
 507.89; 3441.135;   31.000;    0.000;3410.13452
 508.48; 3462.014;   76.000;    0.000;3386.01382
 509.07; 3514.483;   53.000;    0.000;3461.48277
 509.66; 3551.166;   94.000;    0.000;3457.16569
 510.25; 3478.236;   33.000;    0.000;3445.23576
 510.84; 3526.957;   78.000;    0.000;3448.95711
 511.42; 3413.457;   15.000;    0.000;3398.45699
 512.01; 3733.127;  199.000;    0.000;3534.12725
 512.60; 3706.077;  102.000;    0.000;3604.07733
 513.19; 3587.906;  133.000;    0.000;3454.90649
 513.78; 3519.634;  122.000;    0.000;3397.63440
 514.37; 3752.191;  162.000;    0.000;3590.19100
 514.95; 3866.090;  123.000;    0.000;3743.08952
 515.54; 3801.761;  118.000;    0.000;3683.76072
 516.13; 3883.077;  102.000;    0.000;3781.07733
 516.72; 3885.045;  180.000;    0.000;3705.04546
 517.31; 3869.166;  170.000;    0.000;3699.16569
 517.90; 3815.450;   74.000;    0.000;3741.45043
 518.48; 3783.944;  128.000;    0.000;3655.94422
 519.07; 4049.774;  176.000;    0.000;3873.77361
 519.66; 4100.754;  219.000;    0.000;3881.75416
 520.25; 3909.381;  104.000;    0.000;3805.38083
 520.84; 4146.413;  170.000;    0.000;3976.41270
 521.43; 4279.590;  191.000;    0.000;4088.58964
 522.01; 4207.501;  269.000;    0.000;3938.50105
 522.60; 4246.824;  202.000;    0.000;4044.82400
 523.19; 4286.096;  165.000;    0.000;4121.09608
 523.78; 4313.356;  220.000;    0.000;4093.35575
 524.37; 4301.660;  153.000;    0.000;4148.65971
 524.95; 4374.836;  181.000;    0.000;4193.83642
 525.54; 4554.311;  152.000;    0.000;4402.31146
 526.13; 4393.647;  141.000;    0.000;4252.64682
 526.72; 4445.773;  151.000;    0.000;4294.77291
 527.30; 4588.615;  121.000;    0.000;4467.61495
 527.89; 4581.236;  108.000;    0.000;4473.23553
 528.48; 4652.805;  133.000;    0.000;4519.80478
 529.07; 4779.482;  124.000;    0.000;4655.48230
 529.65; 4832.203;  240.000;    0.000;4592.20342
 530.24; 4686.444;  140.000;    0.000;4546.44434
 530.83; 4795.014;   69.000;    0.000;4726.01359
 531.42; 4875.571;  184.000;    0.000;4691.57066
 532.00; 4804.957;  159.000;    0.000;4645.95688
 532.59; 4898.672;  153.000;    0.000;4745.67166
 533.18; 4953.596;  113.000;    0.000;4840.59573
 533.77; 5081.767;  206.000;    0.000;4875.76705
 534.35; 5046.476;  155.000;    0.000;4891.47574
 534.94; 5128.602;   77.000;    0.000;5051.60229
 535.53; 5040.811;  109.000;    0.000;4931.81087
 536.12; 5086.204;   68.000;    0.000;5018.20389
 536.70; 4892.051;   98.000;    0.000;4794.05132
 537.29; 4967.115;   71.000;    0.000;4896.11483
 537.88; 5054.153;  103.000;    0.000;4951.15280
 538.46; 5177.235;   40.000;    0.000;5137.23529
 539.05; 5095.222;   43.000;    0.000;5052.22240
 539.64; 5243.937;   68.000;    0.000;5175.93742
 540.23; 5016.729;  108.000;    0.000;4908.72885
 540.81; 5381.577;  163.000;    0.000;5218.57675
 541.40; 5192.457;   45.000;    0.000;5147.45699
 541.99; 5060.729;   -1.000;    0.000;5061.72885
 542.57; 5093.140;   49.000;    0.000;5044.14014
 543.16; 5103.045;   39.000;    0.000;5064.04546
 543.75; 5061.463;   56.000;    0.000;5005.46262
 544.33; 5203.077;   44.000;    0.000;5159.07687
 544.92; 5147.368;   90.000;    0.000;5057.36770
 545.51; 5395.887;   86.000;    0.000;5309.88704
 546.09; 5324.147;  104.000;    0.000;5220.14670
 546.68; 5297.318;  103.000;    0.000;5194.31755
 547.27; 5377.912;   33.000;    0.000;5344.91211
 547.85; 5397.513;   42.000;    0.000;5355.51347
 548.44; 5266.064;  -18.000;    0.000;5284.06398
 549.03; 5479.222;   41.000;    0.000;5438.22217
 549.61; 5575.166;    8.000;    0.000;5567.16569
 550.20; 5700.634;   40.000;    0.000;5660.63370
 550.78; 5781.830;   70.000;    0.000;5711.83009
 551.37; 5534.260;   74.000;    0.000;5460.25990
 551.96; 5679.342;   59.000;    0.000;5620.34239
 552.54; 5628.052;   13.000;    0.000;5615.05202
 553.13; 5790.412;  -15.000;    0.000;5805.41247
 553.72; 5775.115;   -2.000;    0.000;5777.11483
 554.30; 6025.159;   56.000;    0.000;5969.15866
 554.89; 5951.051;  -13.000;    0.000;5964.05109
 555.47; 6010.583;   17.000;    0.000;5993.58308
 556.06; 6092.653;   76.000;    0.000;6016.65292
 556.65; 6087.387;   68.000;    0.000;6019.38692
 557.23; 6543.216;   47.000;    0.000;6496.21607
 557.82; 6247.203;   10.000;    0.000;6237.20319
 558.40; 6259.564;  -50.000;    0.000;6309.56409
 558.99; 6306.166;    5.000;    0.000;6301.16592
 559.58; 6174.406;   61.000;    0.000;6113.40614
 560.16; 6355.311;  -38.000;    0.000;6393.31146
 560.75; 6464.052;   34.000;    0.000;6430.05179
 561.33; 6555.526;   86.000;    0.000;6469.52613
 561.92; 6597.349;    2.000;    0.000;6595.34919
 562.50; 6599.836;   27.000;    0.000;6572.83618
 563.09; 6468.178;  -14.000;    0.000;6482.17811
 563.68; 6428.450;   -4.000;    0.000;6432.45020
 564.26; 6618.843;   14.000;    0.000;6604.84274
 564.85; 6634.248;   10.000;    0.000;6624.24771
 565.43; 6670.729;   -1.000;    0.000;6671.72885
 566.02; 6778.995;   -6.000;    0.000;6784.99461
 566.60; 6775.001;  -17.000;    0.000;6792.00070
 567.19; 6800.697;  -22.000;    0.000;6822.69721
 567.77; 6880.880;   -8.000;    0.000;6888.88024
 568.36; 7000.513;   18.000;    0.000;6982.51324
 568.94; 6915.735;  -28.000;    0.000;6943.73494
 569.53; 6916.482;   12.000;    0.000;6904.48184
 570.11; 7052.038;   -8.000;    0.000;7060.03843
 570.70; 7201.748;  -41.000;    0.000;7242.74760
 571.28; 7283.634;  -30.000;    0.000;7313.63417
 571.87; 6995.032;  -55.000;    0.000;7050.03211
 572.45; 7299.191;   23.000;    0.000;7276.19053
 573.04; 7115.020;  -31.000;    0.000;7146.02015
 573.62; 7178.824;  -35.000;    0.000;7213.82353
 574.21; 7354.444;   84.000;    0.000;7270.44387
 574.79; 7272.381;   12.000;    0.000;7260.38106
 575.38; 7184.767;  -88.000;    0.000;7272.76658
 575.96; 7243.956;  -28.000;    0.000;7271.95617
 576.55; 7287.298;  -45.000;    0.000;7332.29810
 577.13; 7342.779;   15.000;    0.000;7327.77900
 577.72; 7207.039;  -31.000;    0.000;7238.03867
 578.30; 7371.950;  -37.000;    0.000;7408.95031
 578.89; 7520.133;  -59.000;    0.000;7579.13335
 579.47; 7627.083;  -15.000;    0.000;7642.08319
 580.06; 7511.254;   58.000;    0.000;7453.25427
 580.64; 7421.861;   -2.000;    0.000;7423.86149
 581.23; 7565.824;  -42.000;    0.000;7607.82353
 581.81; 7675.203;  142.000;    0.000;7533.20342
 582.39; 7457.963;  -47.000;    0.000;7504.96274
 582.98; 7663.210;  -50.000;    0.000;7713.20998
 583.56; 7594.780;   -2.000;    0.000;7596.77970
 584.15; 7585.900;   10.000;    0.000;7575.89969
 584.73; 7793.913;   12.000;    0.000;7781.91258
 585.32; 7677.938;   18.000;    0.000;7659.93766
 585.90; 7745.976;  154.000;    0.000;7591.97586
 586.48; 7682.425;  -22.000;    0.000;7704.42489
 587.07; 7640.577;  -12.000;    0.000;7652.57675
 587.65; 7653.551;   31.000;    0.000;7622.55144
 588.24; 7510.925;  -42.000;    0.000;7552.92477
 588.82; 7515.678;  -40.000;    0.000;7555.67799
 589.41; 8981.178; 1798.000;    0.000;7183.17788
 589.99; 7649.659;  -29.000;    0.000;7678.65924
 590.57; 7541.747;  -60.000;    0.000;7601.74736
 591.16; 7764.488;   94.000;    0.000;7670.48840
 591.74; 7613.767;   29.000;    0.000;7584.76658
 592.32; 7431.298;   18.000;    0.000;7413.29810
 592.91; 7587.374;   14.000;    0.000;7573.37450
 593.49; 7469.374;  -59.000;    0.000;7528.37403
 594.08; 7503.786;  -36.000;    0.000;7539.78580
 594.66; 7449.254;  -12.000;    0.000;7461.25381
 595.24; 7447.475;   -2.000;    0.000;7449.47527
 595.83; 7416.273;  -48.000;    0.000;7464.27302
 596.41; 7635.443;  -11.000;    0.000;7646.44340
 596.99; 7551.532;   49.000;    0.000;7502.53222
 597.58; 7540.127;   -5.000;    0.000;7545.12725
 598.16; 7671.906;   60.000;    0.000;7611.90625
 598.74; 7701.931;   41.000;    0.000;7660.93110
 599.33; 7532.058;  -18.000;    0.000;7550.05788
 599.91; 7729.773;  -61.000;    0.000;7790.77314
 600.49; 7618.324;  -31.000;    0.000;7649.32388
 601.08; 7661.380;   73.000;    0.000;7588.38036
 601.66; 7497.254;  -16.000;    0.000;7513.25381
 602.24; 7660.697; -102.000;    0.000;7762.69674
 602.83; 7580.595;  -55.000;    0.000;7635.59550
 603.41; 7670.317;  -11.000;    0.000;7681.31708
 603.99; 7615.413;  -52.000;    0.000;7667.41293
 604.58; 7807.887;  -11.000;    0.000;7818.88680
 605.16; 7829.184;  -26.000;    0.000;7855.18444
 605.74; 7667.767;  -59.000;    0.000;7726.76658
 606.33; 7973.102;  -34.000;    0.000;8007.10194
 606.91; 7673.710;  -21.000;    0.000;7694.70986
 607.49; 7647.159;  -58.000;    0.000;7705.15913
 608.07; 7995.437;  -48.000;    0.000;8043.43731
 608.66; 7704.096;  -68.000;    0.000;7772.09562
 609.24; 7814.235;   16.000;    0.000;7798.23482
 609.82; 7719.476;  -69.000;    0.000;7788.47551
 610.41; 7731.583;  -58.000;    0.000;7789.58308
 610.99; 7657.982;  -97.000;    0.000;7754.98172
 611.57; 7765.102;  -33.000;    0.000;7798.10171
 612.15; 7402.589;   15.000;    0.000;7387.58941
 612.74; 7635.127;   74.000;    0.000;7561.12702
 613.32; 7391.722;  -30.000;    0.000;7421.72229
 613.90; 7313.127;   42.000;    0.000;7271.12725
 614.48; 7261.267;   -3.000;    0.000;7264.26670
 615.07; 7208.989;  -48.000;    0.000;7256.98851
 615.65; 7194.570;  -30.000;    0.000;7224.56995
 616.23; 7205.741;  -48.000;    0.000;7253.74127
 616.81; 7118.362;  -18.000;    0.000;7136.36208
 617.40; 7035.021;  -13.000;    0.000;7048.02062
 617.98; 7252.780;   -7.000;    0.000;7259.78040
 618.56; 7759.818;    0.000;    0.000;7759.81767
 619.14; 7935.989;  -47.000;    0.000;7982.98875
 619.72; 7883.065;  -76.000;    0.000;7959.06468
 620.31; 8008.393;    9.000;    0.000;7999.39348
 620.89; 8066.165;   -9.000;    0.000;8075.16545
 621.47; 8037.919;  -51.000;    0.000;8088.91868
 622.05; 8024.210;  -29.000;    0.000;8053.20975
 622.63; 8157.204;  -33.000;    0.000;8190.20365
 623.22; 7943.570;  -65.000;    0.000;8008.57019
 623.80; 8131.976;    7.000;    0.000;8124.97586
 624.38; 8358.672;   71.000;    0.000;8287.67166
 624.96; 8095.210;  -75.000;    0.000;8170.20998
 625.54; 8245.583;  -66.000;    0.000;8311.58331
 626.13; 8018.317;  -17.000;    0.000;8035.31708
 626.71; 8622.127;  218.000;    0.000;8404.12749
 627.29; 8326.672;  -33.000;    0.000;8359.67237
 627.87; 8166.995;  -49.000;    0.000;8215.99461
 628.45; 7963.165;  -64.000;    0.000;8027.16545
 629.03; 8089.609;   18.000;    0.000;8071.60862
 629.62; 7940.463;  -58.000;    0.000;7998.46309
 630.20; 8125.659; -100.000;    0.000;8225.65924
 630.78; 8073.520;  -39.000;    0.000;8112.51980
 631.36; 8107.754;  -65.000;    0.000;8172.75439
 631.94; 8271.691;  -40.000;    0.000;8311.69065
 632.52; 8059.165;  -14.000;    0.000;8073.16522
 633.10; 8071.780;  -27.000;    0.000;8098.77970
 633.68; 8111.172;  -43.000;    0.000;8154.17202
 634.27; 8041.526;  -35.000;    0.000;8076.52636
 634.85; 8001.989;  -31.000;    0.000;8032.98851
 635.43; 7972.483; -126.000;    0.000;8098.48254
 636.01; 8044.178;  -31.000;    0.000;8075.17811
 636.59; 8113.830;  -66.000;    0.000;8179.83009
 637.17; 8240.540;  -57.000;    0.000;8297.53972
 637.75; 8039.590;  -68.000;    0.000;8107.58987
 638.33; 8135.425;  -62.000;    0.000;8197.42535
 638.91; 7970.938;  -34.000;    0.000;8004.93789
 639.50; 8079.280;  -40.000;    0.000;8119.28005
 640.08; 7839.310;  -83.000;    0.000;7922.30956
 640.66; 8091.321;  -41.000;    0.000;8132.32105
 641.24; 7881.333;   46.000;    0.000;7835.33255
 641.82; 7992.344;   10.000;    0.000;7982.34405
 642.40; 8050.356;  -41.000;    0.000;8091.35554
 642.98; 7850.367;  -95.000;    0.000;7945.36704
 643.56; 7907.379;  -25.000;    0.000;7932.37854
 644.14; 7617.390;  -68.000;    0.000;7685.39003
 644.72; 7949.402;   -4.000;    0.000;7953.40153
 645.30; 7832.413;  -28.000;    0.000;7860.41302
 645.88; 7552.425;  -24.000;    0.000;7576.42452
 646.46; 7760.436;  -24.000;    0.000;7784.43602
 647.04; 7834.448;  -61.000;    0.000;7895.44751
 647.62; 7947.459;   47.000;    0.000;7900.45901
 648.20; 7687.471;    1.000;    0.000;7686.47050
 648.78; 7765.482;   11.000;    0.000;7754.48200
 649.36; 7651.493;  -47.000;    0.000;7698.49350
 649.94; 7712.505; -112.000;    0.000;7824.50499
 650.52; 7817.516;  -65.000;    0.000;7882.51649
 651.11; 7594.528;  -47.000;    0.000;7641.52799
 651.69; 7458.539;  -41.000;    0.000;7499.53948
 652.27; 7660.551;  -11.000;    0.000;7671.55098
 652.85; 7527.562;  -45.000;    0.000;7572.56247
 653.43; 7627.574;  -24.000;    0.000;7651.57397
 654.01; 7546.585;  -58.000;    0.000;7604.58547
 654.59; 7632.597;  -52.000;    0.000;7684.59696
 655.17; 7735.608;  -14.000;    0.000;7749.60846
 655.74; 7476.620;  -58.000;    0.000;7534.61995
 656.32; 7923.631;  -67.000;    0.000;7990.63145
 656.90; 7994.643;  -24.000;    0.000;8018.64295
 657.48; 7843.654;   67.000;    0.000;7776.65444
 658.06; 8020.666;  -68.000;    0.000;8088.66594
 658.64; 8123.677;  -44.000;    0.000;8167.67744
 659.22; 8254.689;  -19.000;    0.000;8273.68893
 659.80; 8254.700;  -57.000;    0.000;8311.70043
 660.38; 8326.712; -114.000;    0.000;8440.71192
 660.96; 8375.723; -123.000;    0.000;8498.72342
 661.54; 8438.735;  -45.000;    0.000;8483.73492
 662.12; 8602.746;  -68.000;    0.000;8670.74641
 662.70; 8404.758;  -94.000;    0.000;8498.75791
 663.28; 8002.769; -106.000;    0.000;8108.76940
 663.86; 7582.781;   -5.000;    0.000;7587.78090
 664.44; 7914.792;  -65.000;    0.000;7979.79240
 665.02; 7770.804;  -11.000;    0.000;7781.80389
 665.60; 7789.815;  -20.000;    0.000;7809.81539
 666.18; 7636.827;  -24.000;    0.000;7660.82689
 666.75; 7862.838;   73.000;    0.000;7789.83838
 667.33; 7616.850;  -44.000;    0.000;7660.84988
 667.91; 7718.861;  134.000;    0.000;7584.86137
 668.49; 7655.873;   21.000;    0.000;7634.87287
 669.07; 7627.884;  -27.000;    0.000;7654.88437
 669.65; 7378.896;  -49.000;    0.000;7427.89586
 670.23; 7447.907;  -75.000;    0.000;7522.90736
 670.81; 7636.919;  -18.000;    0.000;7654.91886
 671.39; 7433.930; -128.000;    0.000;7561.93035
 671.97; 7682.942;  -47.000;    0.000;7729.94185
 672.54; 7670.953;   11.000;    0.000;7659.95334
 673.12; 7682.965;   -1.000;    0.000;7683.96484
 673.70; 7577.976;  -22.000;    0.000;7599.97634
 674.28; 7625.988;   19.000;    0.000;7606.98783
 674.86; 7624.999;  -70.000;    0.000;7694.99933
 675.44; 7817.011;  -36.000;    0.000;7853.01082
 676.02; 7801.022;    3.000;    0.000;7798.02232
 676.59; 7826.034;   34.000;    0.000;7792.03382
 677.17; 7895.045;    1.000;    0.000;7894.04531
 677.75; 7866.057;  -62.000;    0.000;7928.05681
 678.33; 7796.068;  -83.000;    0.000;7879.06831
 678.91; 7696.080;  -44.000;    0.000;7740.07980
 679.49; 7929.091;  -14.000;    0.000;7943.09130
 680.06; 7835.103;  -71.000;    0.000;7906.10279
 680.64; 7907.114;  -38.000;    0.000;7945.11429
 681.22; 7961.126;  -21.000;    0.000;7982.12579
 681.80; 7924.137;  -83.000;    0.000;8007.13728
 682.38; 7942.149;  -44.000;    0.000;7986.14878
 682.96; 7903.160;  -10.000;    0.000;7913.16028
 683.53; 7917.172;   12.000;    0.000;7905.17177
 684.11; 7988.183;    9.000;    0.000;7979.18327
 684.69; 8003.195; -121.000;    0.000;8124.19476
 685.27; 8147.206;   29.000;    0.000;8118.20626
 685.85; 7857.218;  -30.000;    0.000;7887.21776
 686.42; 8032.229;  -51.000;    0.000;8083.22925
 687.00; 7867.241;  -37.000;    0.000;7904.24075
 687.58; 7903.252;  -45.000;    0.000;7948.25224
 688.16; 7755.264;  -65.000;    0.000;7820.26374
 688.73; 7880.275;  -66.000;    0.000;7946.27524
 689.31; 7949.287;  -23.000;    0.000;7972.28673
 689.89; 8079.298;  -35.000;    0.000;8114.29823
 690.47; 7797.310;   34.000;    0.000;7763.30973
 691.04; 7669.321;  -65.000;    0.000;7734.32122
 691.62; 7889.333;  -42.000;    0.000;7931.33272
 692.20; 7652.344;  -92.000;    0.000;7744.34421
 692.78; 7755.356;  -33.000;    0.000;7788.35571
 693.35; 7608.367;   -6.000;    0.000;7614.36721
 693.93; 7626.379;  -44.000;    0.000;7670.37870
 694.51; 7642.390;  -94.000;    0.000;7736.39020
 695.09; 7771.402;  -77.000;    0.000;7848.40170
 695.66; 7503.413;  -89.000;    0.000;7592.41319
 696.24; 7469.425; -118.000;    0.000;7587.42469
 696.82; 7501.436; -107.000;    0.000;7608.43618
 697.39; 7466.448;  -92.000;    0.000;7558.44768
 697.97; 7387.459;  -15.000;    0.000;7402.45918
 698.55; 7273.471;  -44.000;    0.000;7317.47067
 699.13; 7134.482;  -84.000;    0.000;7218.48217
 699.70; 7206.494;  -95.000;    0.000;7301.49366
 700.28; 7035.505;  -67.000;    0.000;7102.50516
 700.86; 7139.517;  -75.000;    0.000;7214.51666
 701.43; 7006.528;  -49.000;    0.000;7055.52815
 702.01; 6912.540;  -51.000;    0.000;6963.53965
 702.59; 6925.551;  -48.000;    0.000;6973.55115
 703.16; 6917.563; -107.000;    0.000;7024.56264
 703.74; 6705.574;  -48.000;    0.000;6753.57414
 704.32; 6856.586;    4.000;    0.000;6852.58563
 704.89; 6708.597;  -66.000;    0.000;6774.59713
 705.47; 6704.609;  -85.000;    0.000;6789.60863
 706.05; 6664.620;  -48.000;    0.000;6712.62012
 706.62; 6638.632;  -59.000;    0.000;6697.63162
 707.20; 6676.643;  -85.000;    0.000;6761.64311
 707.78; 6431.655;  -60.000;    0.000;6491.65461
 708.35; 6482.666; -109.000;    0.000;6591.66611
 708.93; 6527.678;  -43.000;    0.000;6570.67760
 709.51; 6399.689;  -88.000;    0.000;6487.68910
 710.08; 6575.701;  -96.000;    0.000;6671.70060
 710.66; 6507.712;  -57.000;    0.000;6564.71209
 711.23; 6274.724;  -30.000;    0.000;6304.72359
 711.81; 6327.735;  -84.000;    0.000;6411.73508
 712.39; 6523.747;  -49.000;    0.000;6572.74658
 712.96; 6303.758;  -95.000;    0.000;6398.75808
 713.54; 6325.770;  -40.000;    0.000;6365.76957
 714.11; 6423.781;  -44.000;    0.000;6467.78107
 714.69; 6117.793;  -69.000;    0.000;6186.79257
 715.27; 6379.804;  -65.000;    0.000;6444.80406
 715.84; 6183.816;  -19.000;    0.000;6202.81556
 716.42; 6118.827;  -53.000;    0.000;6171.82705
 716.99; 6203.839; -111.000;    0.000;6314.83855
 717.57; 6064.850;  -43.000;    0.000;6107.85005
 718.15; 6051.862; -102.000;    0.000;6153.86154
 718.72; 6103.873;  -48.000;    0.000;6151.87304
 719.30; 6110.885; -118.000;    0.000;6228.88453
 719.87; 5891.896;  -42.000;    0.000;5933.89603
 720.45; 6075.908; -107.000;    0.000;6182.90753
 721.02; 6087.919;  -88.000;    0.000;6175.91902
 721.60; 5847.931;  -75.000;    0.000;5922.93052
 722.17; 5865.942;  -60.000;    0.000;5925.94202
 722.75; 5929.954;  -92.000;    0.000;6021.95351
 723.33; 5805.965; -104.000;    0.000;5909.96501
 723.90; 5879.977;   19.000;    0.000;5860.97650
 724.48; 5861.988;  -80.000;    0.000;5941.98800
 725.05; 5890.999;  -81.000;    0.000;5971.99950
 725.63; 5823.011;  -69.000;    0.000;5892.01099
 726.20; 6005.022;  -27.000;    0.000;6032.02249
 726.78; 5950.034;  -79.000;    0.000;6029.03399
 727.35; 6197.045;   17.000;    0.000;6180.04548
 727.93; 5724.057;  -73.000;    0.000;5797.05698
 728.50; 5839.068;   32.000;    0.000;5807.06847
 729.08; 5559.080;  -54.000;    0.000;5613.07997
 729.65; 6071.091;   73.000;    0.000;5998.09147
 730.23; 5743.103;  -78.000;    0.000;5821.10296
 730.80; 5846.114;  -70.000;    0.000;5916.11446
 731.38; 5846.126;  -73.000;    0.000;5919.12595
 731.95; 5963.137;   36.000;    0.000;5927.13745
 732.53; 5690.149; -116.000;    0.000;5806.14895
 733.10; 5707.160;  -20.000;    0.000;5727.16044
 733.68; 5599.172;  -58.000;    0.000;5657.17194
 734.25; 5851.183;  -38.000;    0.000;5889.18344
 734.82; 5780.195;  -49.000;    0.000;5829.19493
 735.40; 5785.206;  -67.000;    0.000;5852.20643
 735.97; 5732.218;  -49.000;    0.000;5781.21792
 736.55; 5801.229;  -10.000;    0.000;5811.22942
 737.12; 5682.241;  -56.000;    0.000;5738.24092
 737.70; 5606.252; -118.000;    0.000;5724.25241
 738.27; 5665.264;   -2.000;    0.000;5667.26391
 738.85; 5800.275;  -80.000;    0.000;5880.27540
 739.42; 5461.287;  -32.000;    0.000;5493.28690
 739.99; 5851.298;  -75.000;    0.000;5926.29840
 740.57; 5641.310;  -96.000;    0.000;5737.30989
 741.14; 5638.321;   -6.000;    0.000;5644.32139
 741.72; 5674.333;  -79.000;    0.000;5753.33289
 742.29; 5660.344;  -83.000;    0.000;5743.34438
 742.87; 5832.356;  -34.000;    0.000;5866.35588
 743.44; 5660.367;  -55.000;    0.000;5715.36737
 744.01; 5613.379;  -52.000;    0.000;5665.37887
 744.59; 5753.390;  -49.000;    0.000;5802.39037
 745.16; 5754.402;   -2.000;    0.000;5756.40186
 745.73; 5770.413;  -68.000;    0.000;5838.41336
 746.31; 5788.425;  -78.000;    0.000;5866.42486
 746.88; 5706.436; -113.000;    0.000;5819.43635
 747.46; 5647.448;  -33.000;    0.000;5680.44785
 748.03; 5631.459;  -90.000;    0.000;5721.45934
 748.60; 5583.471;  -71.000;    0.000;5654.47084
 749.18; 5714.482;  -94.000;    0.000;5808.48234
 749.75; 5683.494;   11.000;    0.000;5672.49383
 750.32; 5489.505;  -90.000;    0.000;5579.50533
 750.90; 5464.517;  -68.000;    0.000;5532.51682
 751.47; 5557.528;    5.000;    0.000;5552.52832
 752.04; 5689.540;  -42.000;    0.000;5731.53982
 752.62; 5391.551;  -94.000;    0.000;5485.55131
 753.19; 5579.563;  -72.000;    0.000;5651.56281
 753.76; 5490.574;  -73.000;    0.000;5563.57431
 754.34; 5561.586;  -38.000;    0.000;5599.58580
 754.91; 5560.597;  -52.000;    0.000;5612.59730
 755.48; 5568.609;  -44.000;    0.000;5612.60879
 756.06; 5645.620;   19.000;    0.000;5626.62029
 756.63; 5467.632;   55.000;    0.000;5412.63179
 757.20; 5270.643;  -36.000;    0.000;5306.64328
 757.78; 5284.655;  -87.000;    0.000;5371.65478
 758.35; 5414.666;  -75.000;    0.000;5489.66628
 758.92; 5477.678;  -17.000;    0.000;5494.67777
 759.50; 5355.689;  -32.000;    0.000;5387.68927
 760.07; 5439.701; -105.000;    0.000;5544.70076
 760.64; 5276.712;  -95.000;    0.000;5371.71226
 761.21; 5279.724;  -32.000;    0.000;5311.72376
 761.79; 5292.735; -110.000;    0.000;5402.73525
 762.36; 5136.747;  -19.000;    0.000;5155.74675
 762.93; 5207.758;  -68.000;    0.000;5275.75824
 763.50; 5236.770; -102.000;    0.000;5338.76974
 764.08; 5087.781;  -83.000;    0.000;5170.78124
 764.65; 5224.793;  -60.000;    0.000;5284.79273
 765.22; 5152.804;  -73.000;    0.000;5225.80423
 765.79; 5086.816; -117.000;    0.000;5203.81573
 766.37; 5142.827;  -44.000;    0.000;5186.82722
 766.94; 5050.839;  -12.000;    0.000;5062.83872
 767.51; 5046.850;  -59.000;    0.000;5105.85021
 768.08; 5180.862;  -23.000;    0.000;5203.86171
 768.66; 4981.873;    4.000;    0.000;4977.87321
 769.23; 5001.885;  -49.000;    0.000;5050.88470
 769.80; 4921.896; -123.000;    0.000;5044.89620
 770.37; 5069.908;  -56.000;    0.000;5125.90770
 770.94; 5024.919;  -11.000;    0.000;5035.91919
 771.52; 4613.931; -125.000;    0.000;4738.93069
 772.09; 4920.942;  -22.000;    0.000;4942.94218
 772.66; 4779.954;  -36.000;    0.000;4815.95368
 773.23; 4792.965;  -63.000;    0.000;4855.96518
 773.80; 4804.977;  -32.000;    0.000;4836.97667
 774.38; 4682.988;  -82.000;    0.000;4764.98817
 774.95; 4743.000;  -10.000;    0.000;4752.99966
 775.52; 4706.011;  -19.000;    0.000;4725.01116
 776.09; 4743.023;   -4.000;    0.000;4747.02266
 776.66; 4645.034;  -65.000;    0.000;4710.03415
 777.24; 4592.046;  -72.000;    0.000;4664.04565
 777.81; 4568.057;  -24.000;    0.000;4592.05715
 778.38; 4558.069;  -84.000;    0.000;4642.06864
 778.95; 4606.080;  -59.000;    0.000;4665.08014
 779.52; 4405.092;    1.000;    0.000;4404.09163
 780.09; 4480.103;   93.000;    0.000;4387.10313
 780.66; 4397.115;    5.000;    0.000;4392.11463
 781.24; 4481.126;  -51.000;    0.000;4532.12612
 781.81; 4318.138;  -60.000;    0.000;4378.13762
 782.38; 4227.149;  -77.000;    0.000;4304.14911
 782.95; 4265.161; -116.000;    0.000;4381.16061
 783.52; 4309.172;  -67.000;    0.000;4376.17211
 784.09; 4197.184;    8.000;    0.000;4189.18360
 784.66; 4305.195;   39.000;    0.000;4266.19510
 785.23; 4134.207;  -73.000;    0.000;4207.20660
 785.80; 4229.218;  -59.000;    0.000;4288.21809
 786.38; 4071.230;  -54.000;    0.000;4125.22959
 786.95; 4145.241;  -61.000;    0.000;4206.24108
 787.52; 4041.253;  -79.000;    0.000;4120.25258
 788.09; 3983.264;  -88.000;    0.000;4071.26408
 788.66; 3955.276;  -46.000;    0.000;4001.27557
 789.23; 3894.287;  -56.000;    0.000;3950.28707
 789.80; 3979.299;  -57.000;    0.000;4036.29857
 790.37; 3903.310;  -75.000;    0.000;3978.31006
 790.94; 3952.322;   33.000;    0.000;3919.32156
 791.51; 3884.333;  -24.000;    0.000;3908.33305
 792.08; 3908.345; -115.000;    0.000;4023.34455
 792.65; 3892.356;  -12.000;    0.000;3904.35605
 793.22; 3778.368;  -62.000;    0.000;3840.36754
 793.80; 3800.379; -133.000;    0.000;3933.37904
 794.37; 3707.391;  -13.000;    0.000;3720.39053
 794.94; 3894.402;   41.000;    0.000;3853.40203
 795.51; 3667.414;  -25.000;    0.000;3692.41353
 796.08; 3781.425;  -36.000;    0.000;3817.42502
 796.65; 3633.437;  -63.000;    0.000;3696.43652
 797.22; 3584.448;  -82.000;    0.000;3666.44802
 797.79; 3864.460;   36.000;    0.000;3828.45951
 798.36; 3620.471; -136.000;    0.000;3756.47101
 798.93; 3597.483;  -49.000;    0.000;3646.48250
 799.50; 3601.494; -117.000;    0.000;3718.49400
 800.07; 3595.505; -122.000;    0.000;3717.50550
 800.64; 3668.517;  -57.000;    0.000;3725.51699
 801.21; 3497.528;  -21.000;    0.000;3518.52849
 801.78; 3483.540;  -70.000;    0.000;3553.53998
 802.35; 3491.551; -117.000;    0.000;3608.55148
 802.92; 3564.563;  -70.000;    0.000;3634.56298
 803.49; 3443.574;  -39.000;    0.000;3482.57447
 804.06; 3627.586;  -32.000;    0.000;3659.58597
 804.63; 3420.597;  -42.000;    0.000;3462.59747
 805.20; 3466.609;  -66.000;    0.000;3532.60896
 805.77; 3563.620;  -30.000;    0.000;3593.62046
 806.34; 3506.632; -111.000;    0.000;3617.63195
 806.91; 3578.643;  -69.000;    0.000;3647.64345
 807.47; 3474.655;  -74.000;    0.000;3548.65495
 808.04; 3486.666;  -58.000;    0.000;3544.66644
 808.61; 3458.678;  -88.000;    0.000;3546.67794
 809.18; 3322.689;  -46.000;    0.000;3368.68944
 809.75; 3451.701;  -70.000;    0.000;3521.70093
 810.32; 3314.712;  -84.000;    0.000;3398.71243
 810.89; 3477.724;  -38.000;    0.000;3515.72392
 811.46; 3256.735;   -7.000;    0.000;3263.73542
 812.03; 3419.747;  -38.000;    0.000;3457.74692
 812.60; 3330.758;  -62.000;    0.000;3392.75841
 813.17; 3353.770;  -53.000;    0.000;3406.76991
 813.74; 3351.781;   26.000;    0.000;3325.78140
 814.31; 3200.793;  -95.000;    0.000;3295.79290
 814.87; 3378.804;  -58.000;    0.000;3436.80440
 815.44; 3045.816;  -46.000;    0.000;3091.81589
 816.01; 3439.827;  -21.000;    0.000;3460.82739
 816.58; 3104.839; -116.000;    0.000;3220.83889
 817.15; 3205.850;  -56.000;    0.000;3261.85038
 817.72; 3101.862; -100.000;    0.000;3201.86188
 818.29; 3263.873;   22.000;    0.000;3241.87337
 818.86; 2948.885;   18.000;    0.000;2930.88487
 819.42; 3153.896;  -63.000;    0.000;3216.89637
 819.99; 3237.908;  -63.000;    0.000;3300.90786
 820.56; 2969.919; -119.000;    0.000;3088.91936
 821.13; 3086.931;  -16.000;    0.000;3102.93086
 821.70; 3185.942; -104.000;    0.000;3289.94235
 822.27; 2955.954;  -87.000;    0.000;3042.95385
 822.84; 3117.965;  -32.000;    0.000;3149.96534
 823.40; 3065.977;  -71.000;    0.000;3136.97684
 823.97; 3208.988;   47.000;    0.000;3161.98834
 824.54; 2964.000; -113.000;    0.000;3076.99983
 825.11; 3029.011; -132.000;    0.000;3161.01133
 825.68; 3168.023;  105.000;    0.000;3063.02282
 826.24; 2796.034;  -36.000;    0.000;2832.03432
 826.81; 2993.046;  -70.000;    0.000;3063.04582
 827.38; 2973.057;  -85.000;    0.000;3058.05731
 827.95; 3079.069;    5.000;    0.000;3074.06881
 828.52; 3075.080;  -72.000;    0.000;3147.08031
 829.08; 2957.092;  -53.000;    0.000;3010.09180
 829.65; 2896.103;  -74.000;    0.000;2970.10330
 830.22; 2931.115;   -8.000;    0.000;2939.11479
 830.79; 2955.126;  -90.000;    0.000;3045.12629
 831.36; 2974.138;  -77.000;    0.000;3051.13779
 831.92; 3056.149;   65.000;    0.000;2991.14928
 832.49; 2907.161;  -74.000;    0.000;2981.16078
 833.06; 2889.172;   -9.000;    0.000;2898.17227
 833.63; 2868.184;  -54.000;    0.000;2922.18377
 834.19; 2852.195;  -85.000;    0.000;2937.19527
 834.76; 2839.207;  -53.000;    0.000;2892.20676
 835.33; 2771.218; -124.000;    0.000;2895.21826
 835.90; 2809.230;  -76.000;    0.000;2885.22976
 836.46; 2889.241;  -92.000;    0.000;2981.24125
 837.03; 2891.253;  -74.000;    0.000;2965.25275
 837.60; 2855.264;  -85.000;    0.000;2940.26424
 838.17; 2878.276;  -23.000;    0.000;2901.27574
 838.73; 2884.287;  -23.000;    0.000;2907.28724
 839.30; 2835.299;   -9.000;    0.000;2844.29873
 839.87; 2845.310;    4.000;    0.000;2841.31023
 840.43; 2850.322;  -48.000;    0.000;2898.32173
 841.00; 2792.333;    2.000;    0.000;2790.33322
 841.57; 2819.345;  -49.000;    0.000;2868.34472
 842.14; 2757.356;  -79.000;    0.000;2836.35621
 842.70; 2699.368;  -59.000;    0.000;2758.36771
 843.27; 2700.379;  -73.000;    0.000;2773.37921
 843.84; 2783.391;  -40.000;    0.000;2823.39070
 844.40; 2757.402;  -79.000;    0.000;2836.40220
 844.97; 2755.414;  -51.000;    0.000;2806.41369
 845.54; 2715.425;  -58.000;    0.000;2773.42519
 846.10; 2733.437;  -36.000;    0.000;2769.43669
 846.67; 2685.448; -103.000;    0.000;2788.44818
 847.24; 2761.460;  -85.000;    0.000;2846.45968
 847.80; 2663.471;  -66.000;    0.000;2729.47118
 848.37; 2636.483;  -96.000;    0.000;2732.48267
 848.94; 2748.494;   33.000;    0.000;2715.49417
 849.50; 2819.506;   19.000;    0.000;2800.50566
 850.07; 2764.517;  -69.000;    0.000;2833.51716
 850.63; 2832.529;   24.000;    0.000;2808.52866
 851.20; 2713.540;  -85.000;    0.000;2798.54015
 851.77; 2735.552;  -61.000;    0.000;2796.55165
 852.33; 2859.563;  -29.000;    0.000;2888.56315
 852.90; 2615.575;  -66.000;    0.000;2681.57464
 853.47; 2673.586;  -21.000;    0.000;2694.58614
 854.03; 2509.598;  -94.000;    0.000;2603.59763
 854.60; 2619.609;  -39.000;    0.000;2658.60913
 855.16; 2746.621;  -10.000;    0.000;2756.62063
 855.73; 2669.632;  -22.000;    0.000;2691.63212
 856.30; 2701.644;   22.000;    0.000;2679.64362
 856.86; 2564.655;  -58.000;    0.000;2622.65511
 857.43; 2714.667;   -3.000;    0.000;2717.66661
 857.99; 2590.678;  -14.000;    0.000;2604.67811
 858.56; 2455.690; -122.000;    0.000;2577.68960
 859.12; 2616.701;  -30.000;    0.000;2646.70110
 859.69; 2629.713;  -84.000;    0.000;2713.71260
 860.26; 2548.724;  -54.000;    0.000;2602.72409
 860.82; 2630.736;  -50.000;    0.000;2680.73559
 861.39; 2579.747;  -68.000;    0.000;2647.74708
 861.95; 2599.759;  -48.000;    0.000;2647.75858
 862.52; 2692.770;   -1.000;    0.000;2693.77008
 863.08; 2493.782;  -66.000;    0.000;2559.78157
 863.65; 2468.793;  -14.000;    0.000;2482.79307
 864.21; 2454.805;  -69.000;    0.000;2523.80456
 864.78; 2619.816;  -13.000;    0.000;2632.81606
 865.34; 2713.828;  154.000;    0.000;2559.82756
 865.91; 2496.839;  -38.000;    0.000;2534.83905
 866.47; 2429.851;  -58.000;    0.000;2487.85055
 867.04; 2490.862;  -77.000;    0.000;2567.86205
 867.61; 2356.874; -110.000;    0.000;2466.87354
 868.17; 2414.885;  -12.000;    0.000;2426.88504
 868.74; 2417.897;  -60.000;    0.000;2477.89653
 869.30; 2474.908;  -72.000;    0.000;2546.90803
 869.86; 2472.920; -110.000;    0.000;2582.91953
 870.43; 2393.931;  -72.000;    0.000;2465.93102
 870.99; 2390.943; -115.000;    0.000;2505.94252
 871.56; 2486.954;  -63.000;    0.000;2549.95402
 872.12; 2466.966;  -65.000;    0.000;2531.96551
 872.69; 2369.977; -100.000;    0.000;2469.97701
 873.25; 2351.989;  -23.000;    0.000;2374.98850
 873.82; 2337.000;  -68.000;    0.000;2405.00000
 874.38; 2379.000;    7.000;    0.000;2372.00000
 874.95; 2367.000;    5.000;    0.000;2362.00000
 875.51; 2402.000;  -13.000;    0.000;2415.00000
 876.08; 2190.000;  -54.000;    0.000;2244.00000
 876.64; 2212.000; -117.000;    0.000;2329.00000
 877.20; 2097.000; -119.000;    0.000;2216.00000
 877.77; 2229.000;  -71.000;    0.000;2300.00000
 878.33; 2275.000;  -69.000;    0.000;2344.00000
 878.90; 2166.000;  -58.000;    0.000;2224.00000
 879.46; 2114.000;  -83.000;    0.000;2197.00000
 880.03; 2194.000;   -3.000;    0.000;2197.00000
 880.59; 2110.000;  -86.000;    0.000;2196.00000
 881.15; 2311.000;   12.000;    0.000;2299.00000
 881.72; 2095.000;  -54.000;    0.000;2149.00000
 882.28; 2044.000;    7.000;    0.000;2037.00000
 882.85; 2115.000;  -88.000;    0.000;2203.00000
 883.41; 2082.000;  -32.000;    0.000;2114.00000
 883.97; 2499.000;  247.000;    0.000;2252.00000
 884.54; 2129.000;  -62.000;    0.000;2191.00000
 885.10; 2148.000;  -57.000;    0.000;2205.00000
 885.66; 2145.000;   -9.000;    0.000;2154.00000
 886.23; 2123.000;  -47.000;    0.000;2170.00000
 886.79; 2053.000;  -62.000;    0.000;2115.00000
 887.36; 2028.000;   10.000;    0.000;2018.00000
 887.92; 2017.000;  -94.000;    0.000;2111.00000
 888.48; 1908.000; -117.000;    0.000;2025.00000
 889.05; 1977.000; -131.000;    0.000;2108.00000
 889.61; 1892.000;  -40.000;    0.000;1932.00000
 890.17; 1879.000;  -54.000;    0.000;1933.00000
 890.74; 1872.000;  -50.000;    0.000;1922.00000
 891.30; 1781.000;  -60.000;    0.000;1841.00000
 891.86; 1858.000;  -58.000;    0.000;1916.00000
 892.43; 1915.000; -119.000;    0.000;2034.00000
 892.99; 1871.000;  -52.000;    0.000;1923.00000
 893.55; 1769.000;  -86.000;    0.000;1855.00000
 894.11; 1822.000;  -55.000;    0.000;1877.00000
 894.68; 1830.000;  -48.000;    0.000;1878.00000
 895.24; 2057.000;   24.000;    0.000;2033.00000
 895.80; 1823.000;  -65.000;    0.000;1888.00000
 896.37; 1836.000;  -58.000;    0.000;1894.00000
 896.93; 1824.000;  -21.000;    0.000;1845.00000
 897.49; 1725.000; -109.000;    0.000;1834.00000
 898.05; 1868.000;  -17.000;    0.000;1885.00000
 898.62; 1967.000;   47.000;    0.000;1920.00000
 899.18; 1865.000;  -86.000;    0.000;1951.00000
 899.74; 1956.000;   63.000;    0.000;1893.00000
 900.31; 1856.000;  -12.000;    0.000;1868.00000
 900.87; 1856.000;  -63.000;    0.000;1919.00000
 901.43; 1837.000; -166.000;    0.000;2003.00000
 901.99; 1856.000;  -66.000;    0.000;1922.00000
 902.56; 1863.000;  -22.000;    0.000;1885.00000
 903.12; 2056.000;   45.000;    0.000;2011.00000
 903.68; 1789.000; -107.000;    0.000;1896.00000
 904.24; 1952.000;  -48.000;    0.000;2000.00000
 904.80; 1807.000;   -6.000;    0.000;1813.00000
 905.37; 1911.000;  -32.000;    0.000;1943.00000
 905.93; 1923.000;  -31.000;    0.000;1954.00000
 906.49; 1896.000;   -2.000;    0.000;1898.00000
 907.05; 1759.000; -107.000;    0.000;1866.00000
 907.61; 1801.000;  -26.000;    0.000;1827.00000
 908.18; 1945.000;   25.000;    0.000;1920.00000
 908.74; 1913.000;  -34.000;    0.000;1947.00000
 909.30; 1803.000;  -94.000;    0.000;1897.00000
 909.86; 1723.000;  -74.000;    0.000;1797.00000
 910.42; 1852.000; -104.000;    0.000;1956.00000
 910.99; 1816.000;   14.000;    0.000;1802.00000
 911.55; 1822.000;  -74.000;    0.000;1896.00000
 912.11; 1783.000;  -46.000;    0.000;1829.00000
 912.67; 1817.000;  -28.000;    0.000;1845.00000
 913.23; 1696.000;  -93.000;    0.000;1789.00000
 913.79; 1729.000;  -38.000;    0.000;1767.00000
 914.36; 1719.000;  -26.000;    0.000;1745.00000
 914.92; 1671.000;  -48.000;    0.000;1719.00000
 915.48; 1692.000;  -69.000;    0.000;1761.00000
 916.04; 1793.000;   66.000;    0.000;1727.00000
 916.60; 1614.000;  -74.000;    0.000;1688.00000
 917.16; 1643.000;  -68.000;    0.000;1711.00000
 917.72; 1599.000;  -81.000;    0.000;1680.00000
 918.28; 1587.000;  -56.000;    0.000;1643.00000
 918.85; 1678.000;    0.000;    0.000;1678.00000
 919.41; 1678.000;  -24.000;    0.000;1702.00000
 919.97; 1539.000;  -99.000;    0.000;1638.00000
 920.53; 1605.000;  -86.000;    0.000;1691.00000
 921.09; 1531.000;   65.000;    0.000;1466.00000
 921.65; 1436.000;  -75.000;    0.000;1511.00000
 922.21; 1387.000;  -79.000;    0.000;1466.00000
 922.77; 1415.000;  -81.000;    0.000;1496.00000
 923.33; 1566.000;  -20.000;    0.000;1586.00000
 923.89; 1531.000;  -51.000;    0.000;1582.00000
 924.45; 1396.000;  -82.000;    0.000;1478.00000
 925.01; 1417.000;  -45.000;    0.000;1462.00000
 925.58; 1449.000;  -31.000;    0.000;1480.00000
 926.14; 1460.000;  -59.000;    0.000;1519.00000
 926.70; 1423.000;  -66.000;    0.000;1489.00000
 927.26; 1463.000;   -8.000;    0.000;1471.00000
 927.82; 1456.000;  -27.000;    0.000;1483.00000
 928.38; 1324.000;  -35.000;    0.000;1359.00000
 928.94; 1304.000;  -46.000;    0.000;1350.00000
 929.50; 1399.000;  -32.000;    0.000;1431.00000
 930.06; 1315.000; -135.000;    0.000;1450.00000
 930.62; 1373.000; -101.000;    0.000;1474.00000
 931.18; 1352.000;    0.000;    0.000;1352.00000
 931.74; 1271.000;  -92.000;    0.000;1363.00000
 932.30; 1321.000;  -83.000;    0.000;1404.00000
 932.86; 1303.000;  -77.000;    0.000;1380.00000
 933.42; 1250.000;  -91.000;    0.000;1341.00000
 933.98; 1397.000;  -53.000;    0.000;1450.00000
 934.54; 1183.000;   -9.000;    0.000;1192.00000
 935.10; 1178.000;  -91.000;    0.000;1269.00000
 935.66; 1165.000;  -69.000;    0.000;1234.00000
 936.22; 1218.000;  -57.000;    0.000;1275.00000
 936.78; 1266.000;  -61.000;    0.000;1327.00000
 937.34; 1227.000;  -46.000;    0.000;1273.00000
 937.90; 1135.000;  -30.000;    0.000;1165.00000
 938.46; 1124.000;  -34.000;    0.000;1158.00000
 939.02; 1179.000;  -45.000;    0.000;1224.00000
 939.58; 1124.000; -130.000;    0.000;1254.00000
 940.14; 1115.000;  -54.000;    0.000;1169.00000
 940.70; 1173.000;   -6.000;    0.000;1179.00000
 941.25; 1074.000;  -90.000;    0.000;1164.00000
 941.81; 1139.000;  -66.000;    0.000;1205.00000
 942.37; 1112.000;  -62.000;    0.000;1174.00000
 942.93; 1177.000; -108.000;    0.000;1285.00000
 943.49; 1046.000;  -64.000;    0.000;1110.00000
 944.05;  902.000; -102.000;    0.000;1004.00000
 944.61; 1109.000;    8.000;    0.000;1101.00000
 945.17; 1083.000;  -82.000;    0.000;1165.00000
 945.73; 1056.000;  -47.000;    0.000;1103.00000
 946.29;  986.000;  -75.000;    0.000;1061.00000
 946.85;  941.000; -114.000;    0.000;1055.00000
 947.40;  860.000; -121.000;    0.000;981.00000
 947.96; 1029.000;  -34.000;    0.000;1063.00000
 948.52;  963.000;  -89.000;    0.000;1052.00000
 949.08;  927.000;  -52.000;    0.000;979.00000
 949.64; 1088.000;   26.000;    0.000;1062.00000
 950.20;  938.000;  -25.000;    0.000;963.00000
 950.76; 1002.000;  -50.000;    0.000;1052.00000
 951.32;  933.000;  -83.000;    0.000;1016.00000
 951.87; 1005.000;  -63.000;    0.000;1068.00000
 952.43;  904.000;   12.000;    0.000;892.00000
 952.99;  884.000;    2.000;    0.000;882.00000
 953.55;  921.000;  -28.000;    0.000;949.00000
 954.11;  898.000; -127.000;    0.000;1025.00000
 954.67;  820.000;  -56.000;    0.000;876.00000
 955.22;  907.000;  -53.000;    0.000;960.00000
 955.78;  944.000;   30.000;    0.000;914.00000
 956.34;  806.000;  -15.000;    0.000;821.00000
 956.90;  881.000;  -80.000;    0.000;961.00000
 957.46;  809.000;  -89.000;    0.000;898.00000
 958.01;  965.000;   -9.000;    0.000;974.00000
 958.57;  897.000;  -72.000;    0.000;969.00000
 959.13;  967.000;  -48.000;    0.000;1015.00000
 959.69;  820.000;  -47.000;    0.000;867.00000
 960.25;  868.000;  -71.000;    0.000;939.00000
 960.80;  872.000;  -68.000;    0.000;940.00000
 961.36;  904.000;  -47.000;    0.000;951.00000
 961.92;  815.000; -147.000;    0.000;962.00000
 962.48;  772.000;  -90.000;    0.000;862.00000
 963.03;  811.000;  -77.000;    0.000;888.00000
 963.59;  934.000;  -29.000;    0.000;963.00000
 964.15;  887.000;  -99.000;    0.000;986.00000
 964.71;  921.000;  -46.000;    0.000;967.00000
 965.26;  847.000;  -96.000;    0.000;943.00000
 965.82;  901.000;  -53.000;    0.000;954.00000
 966.38;  890.000;  -68.000;    0.000;958.00000
 966.94;  759.000;  -82.000;    0.000;841.00000
 967.49;  768.000;  -82.000;    0.000;850.00000
 968.05;  781.000; -143.000;    0.000;924.00000
 968.61;  910.000;   56.000;    0.000;854.00000
 969.17;  751.000;  -95.000;    0.000;846.00000
 969.72;  661.000; -108.000;    0.000;769.00000
 970.28;  904.000;  -64.000;    0.000;968.00000
 970.84;  750.000;  -91.000;    0.000;841.00000
 971.39;  811.000;  -27.000;    0.000;838.00000
 971.95;  719.000;  -95.000;    0.000;814.00000
 972.51;  816.000; -107.000;    0.000;923.00000
 973.06;  785.000;   13.000;    0.000;772.00000
 973.62;  747.000;  -18.000;    0.000;765.00000
 974.18;  735.000;  -65.000;    0.000;800.00000
 974.73;  643.000;  -78.000;    0.000;721.00000
 975.29;  887.000;   57.000;    0.000;830.00000
 975.85;  804.000;  -36.000;    0.000;840.00000
 976.40;  803.000;  -54.000;    0.000;857.00000
 976.96;  631.000;  -81.000;    0.000;712.00000
 977.52;  753.000;  -24.000;    0.000;777.00000
 978.07;  707.000;  -56.000;    0.000;763.00000
 978.63;  669.000;  -93.000;    0.000;762.00000
 979.19;  653.000;  -22.000;    0.000;675.00000
 979.74;  759.000;  -30.000;    0.000;789.00000
 980.30;  628.000;  -95.000;    0.000;723.00000
 980.85;  671.000;  -17.000;    0.000;688.00000
 981.41;  620.000;  -69.000;    0.000;689.00000
 981.97;  626.000;  -98.000;    0.000;724.00000
 982.52;  601.000; -104.000;    0.000;705.00000
 983.08;  671.000;   -1.000;    0.000;672.00000
 983.63;  671.000;   13.000;    0.000;658.00000
 984.19;  687.000;  -84.000;    0.000;771.00000
 984.75;  593.000;  -90.000;    0.000;683.00000
 985.30;  696.000; -105.000;    0.000;801.00000
 985.86;  609.000;  -75.000;    0.000;684.00000
 986.41;  603.000; -131.000;    0.000;734.00000
 986.97;  583.000; -119.000;    0.000;702.00000
 987.52;  538.000;  -74.000;    0.000;612.00000
 988.08;  494.000;  -99.000;    0.000;593.00000
 988.64;  542.000; -103.000;    0.000;645.00000
 989.19;  517.000; -112.000;    0.000;629.00000
 989.75;  613.000;  -19.000;    0.000;632.00000
 990.30;  533.000; -110.000;    0.000;643.00000
 990.86;  528.000;  -57.000;    0.000;585.00000
 991.41;  525.000;  -66.000;    0.000;591.00000
 991.97;  606.000;  -57.000;    0.000;663.00000
 992.52;  628.000; -112.000;    0.000;740.00000
 993.08;  560.000;  -80.000;    0.000;640.00000
 993.63;  466.000; -115.000;    0.000;581.00000
 994.19;  526.000;  -76.000;    0.000;602.00000
 994.74;  495.000; -111.000;    0.000;606.00000
 995.30;  507.000; -125.000;    0.000;632.00000
 995.85;  466.000; -109.000;    0.000;575.00000
 996.41;  504.000;  -47.000;    0.000;551.00000
 996.96;  531.000;  -65.000;    0.000;596.00000
 997.52;  613.000;   69.000;    0.000;544.00000
 998.07;  507.000;  -39.000;    0.000;546.00000
 998.63;  436.000; -126.000;    0.000;562.00000
 999.18;  556.000;  -20.000;    0.000;576.00000
 999.74;  509.000;  -88.000;    0.000;597.00000
1000.29;  464.000; -110.000;    0.000;574.00000
1000.85;  491.000;  -57.000;    0.000;548.00000
1001.40;  460.000;  -42.000;    0.000;502.00000
1001.96;  395.000;  -17.000;    0.000;412.00000
1002.51;  420.000;  -47.000;    0.000;467.00000
1003.06;  407.000;  -94.000;    0.000;501.00000
1003.62;  461.000;   21.000;    0.000;440.00000
1004.17;  373.000; -108.000;    0.000;481.00000
1004.73;  383.000;  -95.000;    0.000;478.00000
1005.28;  607.000;   83.000;    0.000;524.00000
1005.83;  379.000; -104.000;    0.000;483.00000
1006.39;  430.000; -107.000;    0.000;537.00000
1006.94;  336.000; -103.000;    0.000;439.00000
1007.50;  477.000;  -39.000;    0.000;516.00000
1008.05;  371.000;  -93.000;    0.000;464.00000
1008.60;  473.000;  -49.000;    0.000;522.00000
1009.16;  425.000;  -34.000;    0.000;459.00000
1009.71;  431.000;  -11.000;    0.000;442.00000
1010.27;  364.000; -134.000;    0.000;498.00000
1010.82;  437.000;  -90.000;    0.000;527.00000
1011.37;  524.000;  -17.000;    0.000;541.00000
1011.93;  440.000;    2.000;    0.000;438.00000
1012.48;  435.000;  -24.000;    0.000;459.00000
1013.03;  431.000; -102.000;    0.000;533.00000
1013.59;  436.000;  -70.000;    0.000;506.00000
1014.14;  495.000; -116.000;    0.000;611.00000
1014.69;  366.000;  -80.000;    0.000;446.00000
1015.25;  651.000;   81.000;    0.000;570.00000
1015.80;  423.000;  -40.000;    0.000;463.00000
1016.35;  285.000;  -74.000;    0.000;359.00000
1016.91;  397.000;  -93.000;    0.000;490.00000
1017.46;  364.000;  -71.000;    0.000;435.00000
1018.01;  311.000; -120.000;    0.000;431.00000
1018.57;  351.000; -109.000;    0.000;460.00000
1019.12;  314.000; -100.000;    0.000;414.00000
1019.67;  368.000;  -36.000;    0.000;404.00000
1020.23;  426.000;    0.000;    0.000;426.00000
1020.78;  317.000;  -87.000;    0.000;404.00000
1021.33;  397.000;  -27.000;    0.000;424.00000
1021.88;  474.000;  -39.000;    0.000;513.00000
1022.44;  372.000;   27.000;    0.000;345.00000
1022.99;  290.000;  -95.000;    0.000;385.00000
1023.54;  250.000; -140.000;    0.000;390.00000
1024.09;  452.000;    5.000;    0.000;447.00000
1024.65;  295.000;  -70.000;    0.000;365.00000
1025.20;  255.000;  -86.000;    0.000;341.00000
1025.75;  267.000; -112.000;    0.000;379.00000
1026.30;  326.000;  -23.000;    0.000;349.00000
1026.86;  212.000;  -82.000;    0.000;294.00000
1027.41;  295.000;    6.000;    0.000;289.00000
1027.96;  265.000;  -88.000;    0.000;353.00000
1028.51;  327.000;   27.000;    0.000;300.00000
1029.07;  147.000;  -72.000;    0.000;219.00000
1029.62;  169.000;  -96.000;    0.000;265.00000
1030.17;  259.000;   34.000;    0.000;225.00000
1030.72;  272.000;  -13.000;    0.000;285.00000
1031.27;  153.000;  -29.000;    0.000;182.00000
1031.83;  245.000;  -51.000;    0.000;296.00000
1032.38;  308.000;   -7.000;    0.000;315.00000
1032.93;  243.000;  -64.000;    0.000;307.00000
1033.48;  178.000;  -55.000;    0.000;233.00000
1034.03;  236.000;  -92.000;    0.000;328.00000
1034.58;  204.000;  -52.000;    0.000;256.00000
1035.14;  169.000;  -85.000;    0.000;254.00000
1035.69;  131.000;  -73.000;    0.000;204.00000
1036.24;  192.000; -115.000;    0.000;307.00000
1036.79;  190.000; -119.000;    0.000;309.00000
1037.34;  181.000;  -81.000;    0.000;262.00000
1037.89;  136.000; -129.000;    0.000;265.00000
1038.45;  107.000; -122.000;    0.000;229.00000
1039.00;  190.000;  -28.000;    0.000;218.00000
1039.55;  162.000;  -61.000;    0.000;223.00000
1040.10;  196.000;   11.000;    0.000;185.00000
1040.65;  123.000;  -96.000;    0.000;219.00000
1041.20;  141.000; -102.000;    0.000;243.00000
1041.75;  170.000; -103.000;    0.000;273.00000
1042.30;  129.000; -105.000;    0.000;234.00000
1042.85;  181.000;  -86.000;    0.000;267.00000
1043.41;  113.000;  -33.000;    0.000;146.00000
1043.96;   96.000;  -98.000;    0.000;194.00000
1044.51;   95.000;  -88.000;    0.000;183.00000
1045.06;  148.000;   20.000;    0.000;128.00000
1045.61;   94.000;  -54.000;    0.000;148.00000
1046.16;  216.000;  -38.000;    0.000;254.00000
1046.71;  146.000;  -68.000;    0.000;214.00000
1047.26;  139.000;  -75.000;    0.000;214.00000
1047.81;   92.000; -101.000;    0.000;193.00000
1048.36;  100.000; -128.000;    0.000;228.00000
1048.91;  886.000;  740.000;    0.000;146.00000
1049.46;  204.000;   71.000;    0.000;133.00000
1050.01;   95.000; -100.000;    0.000;195.00000
1050.56;   73.000; -144.000;    0.000;217.00000
1051.11;  158.000;    5.000;    0.000;153.00000
1051.66;   62.000;  -89.000;    0.000;151.00000
1052.21;   98.000;  -67.000;    0.000;165.00000
1052.76;   81.000;  -79.000;    0.000;160.00000
1053.31;  120.000;  -53.000;    0.000;173.00000
1053.86;   82.000;  -15.000;    0.000;97.00000
1054.41;   91.000;  -45.000;    0.000;136.00000
1054.96;   62.000;  -63.000;    0.000;125.00000
1055.51;  300.000;  140.000;    0.000;160.00000
1056.06;   91.000;  -78.000;    0.000;169.00000
1056.61;  135.000;   66.000;    0.000;69.00000
1057.16;   23.000;  -48.000;    0.000;71.00000
1057.71;    1.000; -120.000;    0.000;121.00000
1058.26;   37.000; -105.000;    0.000;142.00000
1058.81;   97.000;   12.000;    0.000;85.00000
1059.36;  -15.000; -114.000;    0.000;99.00000
1059.91;   55.000;  -47.000;    0.000;102.00000
1060.46;   82.000;  -67.000;    0.000;149.00000
1061.01;   36.000; -121.000;    0.000;157.00000
1061.56;   -4.000;  -93.000;    0.000;89.00000
1062.11;  144.000;  -24.000;    0.000;168.00000
1062.66;  -33.000;  -39.000;    0.000; 6.00000
1063.21;  -27.000; -140.000;    0.000;113.00000
1063.76;   55.000;  -42.000;    0.000;97.00000
1064.31;   34.000;  -71.000;    0.000;105.00000
1064.86;    3.000;  -97.000;    0.000;100.00000
1065.40;  109.000;   -6.000;    0.000;115.00000
1065.95;   84.000;  -21.000;    0.000;105.00000
1066.50;   11.000; -100.000;    0.000;111.00000
1067.05;   50.000;  -91.000;    0.000;141.00000
1067.60;   73.000;   27.000;    0.000;46.00000
1068.15;   18.000;  -46.000;    0.000;64.00000
1068.70;  -26.000;  -75.000;    0.000;49.00000
1069.25;   15.000;  -79.000;    0.000;94.00000
1069.79;   35.000;  -54.000;    0.000;89.00000
1070.34;  -44.000; -116.000;    0.000;72.00000
1070.89;   95.000;   -8.000;    0.000;103.00000
1071.44;   34.000;  -61.000;    0.000;95.00000
1071.99;  159.000;   96.000;    0.000;63.00000
1072.54;  -15.000;  -88.000;    0.000;73.00000
1073.09;    8.000;  -19.000;    0.000;27.00000
1073.63;   45.000;  -43.000;    0.000;88.00000
1074.18;   85.000;  -17.000;    0.000;102.00000
1074.73;  -69.000;  -79.000;    0.000;10.00000
1075.28;   58.000;    1.000;    0.000;57.00000
1075.83;   63.000;  -89.000;    0.000;152.00000
1076.38;  -88.000; -122.000;    0.000;34.00000
1076.92;   -4.000;  -90.000;    0.000;86.00000
1077.47;   55.000;  -28.000;    0.000;83.00000
1078.02;  102.000;   45.000;    0.000;57.00000
1078.57;  -39.000; -107.000;    0.000;68.00000
1079.11;   -7.000;  -50.000;    0.000;43.00000
1079.66;  -34.000;  -86.000;    0.000;52.00000
1080.21;  -17.000;  -73.000;    0.000;56.00000
1080.76;  -45.000;  -18.000;    0.000;-27.00000
1081.31;    0.000; -103.000;    0.000;103.00000
1081.85;  -58.000;  -76.000;    0.000;18.00000
1082.40;   38.000;  -10.000;    0.000;48.00000
1082.95;   17.000; -109.000;    0.000;126.00000
1083.50;  -21.000;  -20.000;    0.000;-1.00000
1084.04;   36.000;  -68.000;    0.000;104.00000
1084.59;   36.000; -107.000;    0.000;143.00000
1085.14;  -23.000; -104.000;    0.000;81.00000
1085.69;  -12.000;  -32.000;    0.000;20.00000
1086.23;  -59.000;   -9.000;    0.000;-50.00000
1086.78;   71.000;  -41.000;    0.000;112.00000
1087.33;   38.000;  -34.000;    0.000;72.00000
1087.87;  -60.000;  -93.000;    0.000;33.00000
1088.42;   -2.000;  -27.000;    0.000;25.00000
1088.97;  -10.000;  -88.000;    0.000;78.00000
1089.52;   33.000;  -75.000;    0.000;108.00000
1090.06;  -34.000; -126.000;    0.000;92.00000
1090.61;  -58.000;  -45.000;    0.000;-13.00000
1091.16;  -48.000;  -85.000;    0.000;37.00000
1091.70;  -49.000;  -83.000;    0.000;34.00000
1092.25;  -12.000;  -79.000;    0.000;67.00000
1092.80;  -45.000;  -80.000;    0.000;35.00000
1093.34;   10.000;  -50.000;    0.000;60.00000
1093.89;  -28.000;  -51.000;    0.000;23.00000
1094.44;   39.000;  -39.000;    0.000;78.00000
1094.98;   78.000;  -32.000;    0.000;110.00000
1095.53;   41.000;  -67.000;    0.000;108.00000
1096.07;  -11.000;  -38.000;    0.000;27.00000
1096.62;   27.000;  -75.000;    0.000;102.00000
1097.17;    3.000;   -4.000;    0.000; 7.00000
1097.71;   16.000;  -23.000;    0.000;39.00000
1098.26;  -26.000; -132.000;    0.000;106.00000
1098.81;  -36.000;  -34.000;    0.000;-2.00000
1099.35;  -67.000; -102.000;    0.000;35.00000
1099.90;   11.000;  -57.000;    0.000;68.00000
1100.44;  -80.000; -172.000;    0.000;92.00000

