
Integration time [ms]: 1000.000
Averaging Nr. [scans]: 1
Smoothing Nr. [pixels]: 0
Data measured with spectrometer [name]: 1701237U1
Wave   ;Sample   ;Dark     ;Reference;Scope Corrected for Dark
[nm]   ;[counts] ;[counts] ;[counts] ;[counts] 

 173.88;   10.309;  -33.000;    0.000;43.30908
 174.48;  -48.403;  -46.000;    0.000;-2.40299
 175.09;  -11.890;  -17.000;    0.000; 5.10968
 175.69;   48.666;    9.000;    0.000;39.66616
 176.30;   33.171;   12.000;    0.000;21.17078
 176.90;   11.677;  -29.000;    0.000;40.67749
 177.51;   -7.804;   -4.000;    0.000;-3.80388
 178.11;   41.277;   27.000;    0.000;14.27719
 178.72;  -66.513;  -75.000;    0.000; 8.48733
 179.32;   54.845;  -41.000;    0.000;95.84500
 179.93;  -39.008;  -16.000;    0.000;-23.00806
 180.54;  -12.856;  -23.000;    0.000;10.14426
 181.14;   -5.743;   46.000;    0.000;-51.74278
 181.75;  105.928;   34.000;    0.000;71.92816
 182.35;  -59.778;  -62.000;    0.000; 2.22205
 182.96;   64.358;   69.000;    0.000;-4.64233
 183.56;   23.998;  -51.000;    0.000;74.99790
 184.17;  118.804;   90.000;    0.000;28.80447
 184.77;   30.179;  -12.000;    0.000;42.17884
 185.38;   33.545;   -8.000;    0.000;41.54515
 185.98;   70.424;  -19.000;    0.000;89.42414
 186.59;   -1.487;   28.000;    0.000;-29.48674
 187.19;   35.943;  -46.000;    0.000;81.94277
 187.80;   43.499;    3.000;    0.000;40.49925
 188.40;   30.710;  -37.000;    0.000;67.70997
 189.01;   31.433;  -12.000;    0.000;43.43278
 189.61;    2.340;  -25.000;    0.000;27.34038
 190.21;  -24.527;  -74.000;    0.000;49.47331
 190.82;  -30.129;  -22.000;    0.000;-8.12907
 191.42;   10.007;  -25.000;    0.000;35.00655
 192.03;  -11.210;   25.000;    0.000;-36.20955
 192.63;   31.263;  -45.000;    0.000;76.26318
 193.24;   61.824;   16.000;    0.000;45.82444
 193.84;   22.312;  -50.000;    0.000;72.31236
 194.45;   -1.797;  -26.000;    0.000;24.20267
 195.05;  -11.146;  -30.000;    0.000;18.85364
 195.66;   37.574;   -8.000;    0.000;45.57436
 196.26;   17.131;   23.000;    0.000;-5.86916
 196.87;  -45.169;   18.000;    0.000;-63.16901
 197.47;    6.799;  -52.000;    0.000;58.79910
 198.07;  -31.705; -122.000;    0.000;90.29507
 198.68;  -39.042;  -37.000;    0.000;-2.04204
 199.28;  -36.535;  -42.000;    0.000; 5.46467
 199.89;   -3.511;    4.000;    0.000;-7.51149
 200.49;   -4.748;    7.000;    0.000;-11.74815
 201.10;   76.514;   16.000;    0.000;60.51385
 201.70;   12.820;   46.000;    0.000;-33.18034
 202.31;  -83.706;  -50.000;    0.000;-33.70552
 202.91;  -10.766;   31.000;    0.000;-41.76603
 203.51;   -4.581;   -5.000;    0.000; 0.41877
 204.12;  -32.640;   15.000;    0.000;-47.63964
 204.72;   39.358;   34.000;    0.000; 5.35767
 205.33;  -61.714;  -26.000;    0.000;-35.71416
 205.93;  -29.354;  -11.000;    0.000;-18.35381
 206.53;   18.257; -100.000;    0.000;118.25722
 207.14;  -13.604;  -51.000;    0.000;37.39552
 207.74;  -19.423;  -34.000;    0.000;14.57704
 208.35;    7.765;  -78.000;    0.000;85.76452
 208.95;    5.447;    3.000;    0.000; 2.44738
 209.55;  203.387;  177.000;    0.000;26.38688
 210.16;   -5.227;  -79.000;    0.000;73.77316
 210.76;   30.007;   28.000;    0.000; 2.00655
 211.37;  -13.821;  -54.000;    0.000;40.17942
 211.97;   45.519;  -15.000;    0.000;60.51922
 212.57;    5.416;  -33.000;    0.000;38.41608
 213.18;    0.514;  -66.000;    0.000;66.51385
 213.78;  -16.039;  -21.000;    0.000; 4.96064
 214.38;  141.491;  102.000;    0.000;39.49060
 214.99;   23.514;   -9.000;    0.000;32.51385
 215.59;   55.727;  -53.000;    0.000;108.72726
 216.20;  -31.791;  -78.000;    0.000;46.20863
 216.80;  -61.472;  -39.000;    0.000;-22.47155
 217.40;   35.765;    0.000;    0.000;35.76452
 218.01;   27.846;  -13.000;    0.000;40.84559
 218.61;  -54.953;  -50.000;    0.000;-4.95292
 219.21;   -6.579;  -44.000;    0.000;37.42145
 219.82;  116.231;   59.000;    0.000;57.23129
 220.42;  -27.933;  -77.000;    0.000;49.06705
 221.02;   -2.252;  -40.000;    0.000;37.74782
 221.63;   -2.892;  -46.000;    0.000;43.10818
 222.23;  -65.281;  -91.000;    0.000;25.71862
 222.83;  -19.959;  -45.000;    0.000;25.04112
 223.44;   25.286;  -82.000;    0.000;107.28584
 224.04;   12.022;  -39.000;    0.000;51.02174
 224.64;  -59.938;  -60.000;    0.000; 0.06168
 225.25;  -19.872;   14.000;    0.000;-33.87244
 225.85;  -25.069;  -50.000;    0.000;24.93144
 226.45;  -25.299;  -12.000;    0.000;-13.29867
 227.06;   73.566;   77.000;    0.000;-3.43429
 227.66;   65.300;   79.000;    0.000;-13.69956
 228.26;   37.151;  -12.000;    0.000;49.15081
 228.87;   10.064;  -34.000;    0.000;44.06437
 229.47;   11.808;   37.000;    0.000;-25.19226
 230.07;   93.779;  -24.000;    0.000;117.77912
 230.68;   23.606;   88.000;    0.000;-64.39434
 231.28;    9.416;   -7.000;    0.000;16.41608
 231.88;  183.961;  108.000;    0.000;75.96064
 232.48;   43.199;    8.000;    0.000;35.19940
 233.09;   21.776;    7.000;    0.000;14.77585
 233.69;  -31.063;  -79.000;    0.000;47.93740
 234.29;   35.041;   37.000;    0.000;-1.95888
 234.90;   16.528;   35.000;    0.000;-18.47155
 235.50;  -13.134;  -67.000;    0.000;53.86615
 236.10;  -77.829;  -81.000;    0.000; 3.17078
 236.70;    0.796;   21.000;    0.000;-20.20359
 237.31;    5.278;  -38.000;    0.000;43.27778
 237.91;  -32.515;    4.000;    0.000;-36.51477
 238.51;   -4.267;  -64.000;    0.000;59.73263
 239.11;  -23.303;  -52.000;    0.000;28.69747
 239.72;  -25.241;  -64.000;    0.000;38.75915
 240.32;  -16.954;  -82.000;    0.000;65.04649
 240.92;   66.770;   25.000;    0.000;41.77048
 241.53;  -21.215;   21.000;    0.000;-42.21492
 242.13;   33.384;   29.000;    0.000; 4.38419
 242.73;   22.231;   13.000;    0.000; 9.23129
 243.33;   40.747;  -48.000;    0.000;88.74664
 243.93;   24.459;  -41.000;    0.000;65.45930
 244.54;  -36.192;  -46.000;    0.000; 9.80774
 245.14;  -47.581;  -35.000;    0.000;-12.58123
 245.74;   81.649;   44.000;    0.000;37.64947
 246.34;  -39.944;  -11.000;    0.000;-28.94427
 246.95;    1.217;  -79.000;    0.000;80.21727
 247.55;  -62.987;  -76.000;    0.000;13.01251
 248.15;  -62.984;  -58.000;    0.000;-4.98422
 248.75;   21.421;   11.000;    0.000;10.42145
 249.36;   27.076;  -60.000;    0.000;87.07629
 249.96;  -16.181;  -23.000;    0.000; 6.81907
 250.56;   30.013;  -15.000;    0.000;45.01251
 251.16;  -35.838;  -40.000;    0.000; 4.16214
 251.76;   29.229;    3.000;    0.000;26.22860
 252.37;   21.629;   35.000;    0.000;-13.37110
 252.97;  -49.581;  -12.000;    0.000;-37.58123
 253.57;  -15.192;  -13.000;    0.000;-2.19226
 254.17;    4.364;   45.000;    0.000;-40.63578
 254.77;  -32.458;    0.000;    0.000;-32.45753
 255.38;   18.330;  -69.000;    0.000;87.32964
 255.98;  -44.521;   -9.000;    0.000;-35.52132
 256.58;   92.560;   43.000;    0.000;49.55975
 257.18;  -33.529;  -27.000;    0.000;-6.52937
 257.78;   12.669;  -35.000;    0.000;47.66944
 258.38;  -76.235;  -24.000;    0.000;-52.23548
 258.99;  -24.870;  -47.000;    0.000;22.13025
 259.59;  -37.855;  -18.000;    0.000;-19.85515
 260.19;  -12.178;  -38.000;    0.000;25.82234
 260.79;  -23.039;   37.000;    0.000;-60.03936
 261.39;  100.347;  113.000;    0.000;-12.65307
 261.99;  -48.930;  -51.000;    0.000; 2.07033
 262.60;   21.399;  -68.000;    0.000;89.39879
 263.20;   25.346; -102.000;    0.000;127.34634
 263.80;  -66.650;  -56.000;    0.000;-10.64979
 264.40;  -59.875;  -95.000;    0.000;35.12488
 265.00;   57.747;   16.000;    0.000;41.74723
 265.60;  -18.821;  -19.000;    0.000; 0.17942
 266.20;    0.767;   12.000;    0.000;-11.23280
 266.81;   -7.942;  -17.000;    0.000; 9.05841
 267.41;   34.589;   -8.000;    0.000;42.58896
 268.01;   83.914;   69.000;    0.000;14.91415
 268.61;  -63.593;  -82.000;    0.000;18.40744
 269.21;  -49.817;  -87.000;    0.000;37.18270
 269.81;    5.424;   -9.000;    0.000;14.42414
 270.41;   11.825;   13.000;    0.000;-1.17497
 271.01;   21.891;  -36.000;    0.000;57.89149
 271.62;  -27.878;  -24.000;    0.000;-3.87840
 272.22; -101.319;  -78.000;    0.000;-23.31923
 272.82;   79.159;   12.000;    0.000;67.15945
 273.42;   29.306;   18.000;    0.000;11.30640
 274.02;   15.110;  -53.000;    0.000;68.11027
 274.62;  -35.414;  -69.000;    0.000;33.58627
 275.22;  -84.198;  -62.000;    0.000;-22.19822
 275.82;    8.494;  -49.000;    0.000;57.49388
 276.42;  -24.376;  -64.000;    0.000;39.62353
 277.02;    7.862; -101.000;    0.000;108.86229
 277.63;   11.909;   52.000;    0.000;-40.09122
 278.23;  -24.057;  -42.000;    0.000;17.94336
 278.83;  -14.670;    8.000;    0.000;-22.67036
 279.43;  132.520;   63.000;    0.000;69.51981
 280.03;  -52.686;  -18.000;    0.000;-34.68555
 280.63;  -34.685;  -65.000;    0.000;30.31504
 281.23;   27.488;   52.000;    0.000;-24.51208
 281.83;  -93.301;  -33.000;    0.000;-60.30136
 282.43; 2370.280; 2084.000;    0.000;286.28047
 283.03;   51.963;   68.000;    0.000;-16.03667
 283.63;  -92.022;  -34.000;    0.000;-58.02207
 284.23;  -13.740;  -37.000;    0.000;23.26049
 284.83;   10.157;   -4.000;    0.000;14.15677
 285.43;   52.911;    1.000;    0.000;51.91147
 286.03;    9.580;  -55.000;    0.000;64.57973
 286.63;   32.952;  -42.000;    0.000;74.95200
 287.23;  -38.158;  -76.000;    0.000;37.84231
 287.84;   -3.406;  -33.000;    0.000;29.59433
 288.44;  -13.769;  -43.000;    0.000;29.23129
 289.04;  -36.827;  -58.000;    0.000;21.17347
 289.64; -102.725;  -20.000;    0.000;-82.72549
 290.24;   -1.462;   -7.000;    0.000; 5.53768
 290.84;  -29.080;  -64.000;    0.000;34.91952
 291.44;   48.346;   26.000;    0.000;22.34634
 292.04;  -78.746;    0.000;    0.000;-78.74605
 292.64;    8.551;  -17.000;    0.000;25.55111
 293.24;  -11.550;   17.000;    0.000;-28.54993
 293.84;   32.762; -109.000;    0.000;141.76183
 294.44;   51.995;  -20.000;    0.000;71.99522
 295.04;   11.525;  -59.000;    0.000;70.52518
 295.64;  -32.049;  -60.000;    0.000;27.95141
 296.24;    8.865;  -40.000;    0.000;48.86497
 296.84;  -43.827;  -14.000;    0.000;-29.82653
 297.44;   31.730;  -85.000;    0.000;116.72995
 298.04;   21.963;  -43.000;    0.000;64.96274
 298.64;  -55.282;  -65.000;    0.000; 9.71803
 299.24;  -45.832;  -15.000;    0.000;-30.83190
 299.84;   54.701;   10.000;    0.000;44.70074
 300.44;  -15.639;  -38.000;    0.000;22.36094
 301.04;   25.582;  -16.000;    0.000;41.58241
 301.64;  -22.126;  -26.000;    0.000; 3.87420
 302.24;   10.644;  -62.000;    0.000;72.64351
 302.83;  -55.193;  -40.000;    0.000;-15.19285
 303.43;  -10.866;  -30.000;    0.000;19.13352
 304.03;  -77.077;  -97.000;    0.000;19.92338
 304.63;  -46.146;  -10.000;    0.000;-36.14636
 305.23;  -32.613;  -22.000;    0.000;-10.61312
 305.83;  -37.011; -109.000;    0.000;71.98926
 306.43;   30.911;  -82.000;    0.000;112.91147
 307.03;   49.038;    7.000;    0.000;42.03844
 307.63;   10.032;   12.000;    0.000;-1.96752
 308.23;   34.255;   62.000;    0.000;-27.74547
 308.83;    9.848;  -12.000;    0.000;21.84827
 309.43;  -41.466;   -8.000;    0.000;-33.46559
 310.03;   -7.759;  -64.000;    0.000;56.24052
 310.63;  -20.748;  -45.000;    0.000;24.25185
 311.23;  -11.915;    8.000;    0.000;-19.91507
 311.83;    2.842;  -15.000;    0.000;17.84231
 312.43;  -30.852;   13.000;    0.000;-43.85247
 313.02;   47.624;    5.000;    0.000;42.62353
 313.62;  -19.700;  -58.000;    0.000;38.30044
 314.22;  -33.365;  -13.000;    0.000;-20.36514
 314.82;   95.485;   61.000;    0.000;34.48523
 315.42;   13.336;   36.000;    0.000;-22.66440
 316.02;   -7.679;   -7.000;    0.000;-0.67900
 316.62;   66.393;  -24.000;    0.000;90.39342
 317.22;    2.120;  -92.000;    0.000;94.11951
 317.82;    9.776;  -50.000;    0.000;59.77644
 318.42;  302.266;  249.000;    0.000;53.26586
 319.01;  -13.405;  -62.000;    0.000;48.59492
 319.61;   66.085;    1.000;    0.000;65.08493
 320.21;  -64.293;  -35.000;    0.000;-29.29271
 320.81;    9.131;  -28.000;    0.000;37.13142
 321.41;   86.989;   44.000;    0.000;42.98926
 322.01;  -39.593;  -88.000;    0.000;48.40744
 322.61;   47.953;  -28.000;    0.000;75.95259
 323.21;  -59.708;  -89.000;    0.000;29.29238
 323.80;  -21.422;  -97.000;    0.000;75.57763
 324.40;   -8.811;  -59.000;    0.000;50.18925
 325.00;   -9.341; -107.000;    0.000;97.65870
 325.60;    1.840;  -35.000;    0.000;36.84022
 326.20;   33.618;  -35.000;    0.000;68.61816
 326.80;   -0.471; -100.000;    0.000;99.52904
 327.40;   73.757;  -32.000;    0.000;105.75705
 327.99;   66.406;  -29.000;    0.000;95.40593
 328.59;    1.853;  -38.000;    0.000;39.85273
 329.19;  383.487;  305.000;    0.000;78.48700
 329.79;   33.738;   19.000;    0.000;14.73767
 330.39;  102.908;   73.000;    0.000;29.90786
 330.99;    2.694;    5.000;    0.000;-2.30555
 331.58;   26.620;  -52.000;    0.000;78.61993
 332.18;  -27.299;  -58.000;    0.000;30.70100
 332.78;   91.165;   34.000;    0.000;57.16508
 333.38;  106.013;   66.000;    0.000;40.01277
 333.98;  -95.673;  -73.000;    0.000;-22.67337
 334.57;   24.341;   -5.000;    0.000;29.34123
 335.17;  -20.500;  -62.000;    0.000;41.49950
 335.77;   22.442;   28.000;    0.000;-5.55832
 336.37;  130.471;  122.000;    0.000; 8.47089
 336.97;   -4.925;  -45.000;    0.000;40.07537
 337.56;   40.099;  -84.000;    0.000;124.09861
 338.16;   93.911;  -12.000;    0.000;105.91113
 338.76;   46.360;   17.000;    0.000;29.36003
 339.36;  -48.308;  -66.000;    0.000;17.69177
 339.96;   25.461;   26.000;    0.000;-0.53893
 340.55;   38.660;   11.000;    0.000;27.65988
 341.15;    2.409;  -31.000;    0.000;33.40920
 341.75;   75.343;   58.000;    0.000;17.34333
 342.35;    0.222;  -92.000;    0.000;92.22231
 342.94;   75.004;   74.000;    0.000; 1.00412
 343.54;    8.142;    6.000;    0.000; 2.14183
 344.14;  -22.187;  -74.000;    0.000;51.81337
 344.74;   16.378;   -4.000;    0.000;20.37849
 345.33;  132.790;   25.000;    0.000;107.79012
 345.93;   14.859;   -4.000;    0.000;18.85927
 346.53;   15.726;  -50.000;    0.000;65.72634
 347.13;   -4.078;  -44.000;    0.000;39.92246
 347.72;   17.511;  -39.000;    0.000;56.51083
 348.32;   39.329;  -35.000;    0.000;74.32872
 348.92;   53.309;   17.000;    0.000;36.30875
 349.52;  -44.219;  -58.000;    0.000;13.78148
 350.11;  106.522;   81.000;    0.000;25.52216
 350.71;  -43.931;  -35.000;    0.000;-8.93059
 351.31;   35.821;  -22.000;    0.000;57.82142
 351.91;   27.640;  -95.000;    0.000;122.63990
 352.50;   26.407;  -34.000;    0.000;60.40652
 353.10;   15.974;   -9.000;    0.000;24.97433
 353.70;   76.386;  -52.000;    0.000;128.38596
 354.29;  396.767;  362.000;    0.000;34.76687
 354.89;   16.701;  -56.000;    0.000;72.70100
 355.49;   -7.064;  -92.000;    0.000;84.93648
 356.09;   72.323;   13.000;    0.000;59.32335
 356.68;  -46.490;  -59.000;    0.000;12.51025
 357.28;   23.217;  -46.000;    0.000;69.21694
 357.88;   32.640;  -53.000;    0.000;85.64049
 358.47;  -57.484;  -81.000;    0.000;23.51620
 359.07;   87.528;   51.000;    0.000;36.52753
 359.67;  -23.810;  -42.000;    0.000;18.19042
 360.26;    4.957;  -26.000;    0.000;30.95704
 360.86;  -10.357;   -7.000;    0.000;-3.35682
 361.46;   41.006;    6.000;    0.000;35.00563
 362.05;   19.721;    1.000;    0.000;18.72097
 362.65;   -8.210;  -40.000;    0.000;31.78953
 363.25;  -34.236;  -50.000;    0.000;15.76360
 363.84;  -73.046;   -1.000;    0.000;-72.04623
 364.44;   53.839;    0.000;    0.000;53.83871
 365.04;  -23.369;  -21.000;    0.000;-2.36874
 365.63;  -53.928;  -71.000;    0.000;17.07209
 366.23;   14.040;  -16.000;    0.000;30.04021
 366.83;  -12.902;  -53.000;    0.000;40.09803
 367.42;  -52.484;  -95.000;    0.000;42.51620
 368.02;  -30.997; -107.000;    0.000;76.00294
 368.62;    5.188;   33.000;    0.000;-27.81226
 369.21;   67.464;    3.000;    0.000;64.46434
 369.81;  236.836;  192.000;    0.000;44.83603
 370.41;  -34.153;  -42.000;    0.000; 7.84677
 371.00;  -12.463;  -23.000;    0.000;10.53677
 371.60;   35.237;  -24.000;    0.000;59.23692
 372.19;  -30.060;  -20.000;    0.000;-10.06025
 372.79;  -13.718;  -29.000;    0.000;15.28223
 373.39;   38.254;    2.000;    0.000;36.25361
 373.98;   18.196;  -16.000;    0.000;34.19638
 374.58;  -11.429;   37.000;    0.000;-48.42925
 375.17;   63.525;  -37.000;    0.000;100.52544
 375.77;  141.101;   34.000;    0.000;107.10130
 376.37;  -25.167;  -56.000;    0.000;30.83334
 376.96;   54.136;   -3.000;    0.000;57.13588
 377.56;   76.873;   -8.000;    0.000;84.87329
 378.15;   -4.524;  -24.000;    0.000;19.47567
 378.75;   58.024;  -24.000;    0.000;82.02351
 379.35;  -26.596;  -23.000;    0.000;-3.59616
 379.94;  115.488;  -18.000;    0.000;133.48759
 380.54;   -4.178;  -33.000;    0.000;28.82201
 381.13;   17.989;  -35.000;    0.000;52.98893
 381.73;  -11.107;  -63.000;    0.000;51.89326
 382.32;   14.052;  -68.000;    0.000;82.05153
 382.92;  -58.665;  -78.000;    0.000;19.33468
 383.52;    7.467;  -47.000;    0.000;54.46703
 384.11;  -31.734;   -3.000;    0.000;-28.73447
 384.71;   12.736;    4.000;    0.000; 8.73557
 385.30;   45.341;  -25.000;    0.000;70.34064
 385.90;   56.464;   20.000;    0.000;36.46434
 386.49;  -42.962;  -25.000;    0.000;-17.96189
 387.09;  103.381;   48.000;    0.000;55.38118
 387.68;  -12.931;   13.000;    0.000;-25.93059
 388.28;  -15.086; -103.000;    0.000;87.91382
 388.87;  268.135;  171.000;    0.000;97.13529
 389.47;   20.978;  -41.000;    0.000;61.97760
 390.07;   22.343;  -11.000;    0.000;33.34333
 390.66;   49.657;  -38.000;    0.000;87.65719
 391.26;   58.496;  -43.000;    0.000;101.49623
 391.85;  -49.864;  -41.000;    0.000;-8.86412
 392.45;  -40.244;  -16.000;    0.000;-24.24445
 393.04;  -37.695;   -6.000;    0.000;-31.69452
 393.64;  -69.438;  -90.000;    0.000;20.56211
 394.23;   73.490;   -6.000;    0.000;79.49027
 394.83;  -62.429;  -38.000;    0.000;-24.42925
 395.42;   90.767;    9.000;    0.000;81.76746
 396.02;   67.020;    4.000;    0.000;63.02023
 396.61;  -19.455;  -70.000;    0.000;50.54541
 397.21;    4.378;   12.000;    0.000;-7.62210
 397.80;11305.810;10838.000;    0.000;467.81009
 398.40;  118.430;   49.000;    0.000;69.42977
 398.99;   46.516;  -25.000;    0.000;71.51620
 399.59;  -34.927;    6.000;    0.000;-40.92732
 400.18;  -26.259;  -27.000;    0.000; 0.74094
 400.78;    5.000;  -36.000;    0.000;41.00026
 401.37;  -28.977;  -24.000;    0.000;-4.97708
 401.96;  -38.158;  -38.000;    0.000;-0.15802
 402.56;    2.992;  -72.000;    0.000;74.99162
 403.15;    0.810;  -21.000;    0.000;21.81009
 403.75;   89.245;   51.000;    0.000;38.24497
 404.34;   -0.968;   -3.000;    0.000; 2.03215
 404.94;    6.404;  -60.000;    0.000;66.40384
 405.53;  -58.383; -133.000;    0.000;74.61724
 406.13;   64.271;  -27.000;    0.000;91.27149
 406.72;  -32.366;  -42.000;    0.000; 9.63394
 407.32;   19.482;  -46.000;    0.000;65.48163
 407.91;   35.009;  -31.000;    0.000;66.00890
 408.50;   49.628;  -49.000;    0.000;98.62798
 409.10;   19.026;  -61.000;    0.000;80.02619
 409.69;   14.409;   36.000;    0.000;-21.59080
 410.29;  -10.962;  -50.000;    0.000;39.03752
 410.88;   -0.853;  -26.000;    0.000;25.14720
 411.47;   12.176;  -70.000;    0.000;82.17582
 412.07;   34.133;  -45.000;    0.000;79.13260
 412.66;   47.012;  -15.000;    0.000;62.01159
 413.26;   43.824;  -70.000;    0.000;113.82411
 413.85;   39.109;  -76.000;    0.000;115.10935
 414.45;  145.277;  114.000;    0.000;31.27686
 415.04;   15.954;  -72.000;    0.000;87.95377
 415.63;   89.260;   24.000;    0.000;65.25957
 416.23;   83.225;  -50.000;    0.000;133.22500
 416.82;   55.680;  -35.000;    0.000;90.68044
 417.41;   62.861;   -4.000;    0.000;66.86137
 418.01;  125.623;  -43.000;    0.000;168.62261
 418.60;   15.533; -105.000;    0.000;120.53349
 419.20;  -13.781;    6.000;    0.000;-19.78096
 419.79;  -27.908;   -5.000;    0.000;-22.90793
 420.38;   65.496;  -41.000;    0.000;106.49564
 420.98;    8.135;  -81.000;    0.000;89.13529
 421.57;    2.917;  -67.000;    0.000;69.91651
 422.16;   27.017;  -32.000;    0.000;59.01696
 422.76;   92.173;  -65.000;    0.000;157.17255
 423.35;   25.591;  -70.000;    0.000;95.59072
 423.94;  161.844;   79.000;    0.000;82.84408
 424.54;   88.518;   -5.000;    0.000;93.51830
 425.13;  170.432;   53.000;    0.000;117.43245
 425.73;   88.351;   14.000;    0.000;74.35138
 426.32;   71.470;  -36.000;    0.000;107.46971
 426.91;  114.674;   -4.000;    0.000;118.67389
 427.51;  152.339;  121.000;    0.000;31.33946
 428.10;  106.069;   51.000;    0.000;55.06882
 428.69;   -2.052;  -28.000;    0.000;25.94781
 429.28;   17.519;  -59.000;    0.000;76.51889
 429.88;   74.815;  -39.000;    0.000;113.81546
 430.47;   58.244;   -3.000;    0.000;61.24438
 431.06;  128.034;   15.000;    0.000;113.03425
 431.66;   90.674;  -27.000;    0.000;117.67389
 432.25;   45.052;  -82.000;    0.000;127.05153
 432.84;   28.720;  -63.000;    0.000;91.71979
 433.44;  100.591;   -6.000;    0.000;106.59072
 434.03;   44.616;  -76.000;    0.000;120.61607
 434.62;  138.155;   36.000;    0.000;102.15526
 435.22;   93.604;   40.000;    0.000;53.60415
 435.81;   91.726;   -6.000;    0.000;97.72575
 436.40;   50.221;  -40.000;    0.000;90.22114
 436.99;   71.190;  -61.000;    0.000;132.18983
 437.59;  154.752;  -33.000;    0.000;187.75168
 438.18;  129.936;   -5.000;    0.000;134.93589
 438.77;   27.230; -102.000;    0.000;129.22978
 439.36;   63.302;  -83.000;    0.000;146.30220
 439.96;  156.405;  118.000;    0.000;38.40534
 440.55;   85.227;  -89.000;    0.000;174.22709
 441.14;  175.143;    6.000;    0.000;169.14334
 441.73;  164.513;   80.000;    0.000;84.51293
 442.33;   72.680;   -9.000;    0.000;81.67985
 442.92;  214.878;   76.000;    0.000;138.87807
 443.51;   74.184;   16.000;    0.000;58.18388
 444.10;  246.441;   52.000;    0.000;194.44051
 444.70;  147.008;  -33.000;    0.000;180.00773
 445.29;  137.723;  -23.000;    0.000;160.72307
 445.88;  121.795;   -3.000;    0.000;124.79490
 446.47;  121.034;   41.000;    0.000;80.03366
 447.07;  142.524;  -17.000;    0.000;159.52367
 447.66;  135.441;   63.000;    0.000;72.44051
 448.25;  195.927;   11.000;    0.000;184.92725
 448.84;   95.599;   38.000;    0.000;57.59878
 449.43;  216.477;   -7.000;    0.000;223.47718
 450.03;  241.902;   71.000;    0.000;170.90190
 450.62;  119.155;  -20.000;    0.000;139.15526
 451.21;  173.524;   35.000;    0.000;138.52426
 451.80;  237.772;  118.000;    0.000;119.77166
 452.39;  117.558;  -20.000;    0.000;137.55825
 452.99;  110.431;    6.000;    0.000;104.43127
 453.58;  182.111;   13.000;    0.000;169.11145
 454.17;   93.342;   -8.000;    0.000;101.34156
 454.76;  233.287;   46.000;    0.000;187.28701
 455.35;  250.302;   79.000;    0.000;171.30162
 455.95;  160.806;  -38.000;    0.000;198.80623
 456.54;  145.356;  -59.000;    0.000;204.35616
 457.13;  219.091;    9.000;    0.000;210.09148
 457.72;  179.082;  -46.000;    0.000;225.08225
 458.31;  117.659;  -63.000;    0.000;180.65870
 458.90;  307.524;   84.000;    0.000;223.52367
 459.50;  218.048;  -32.000;    0.000;250.04826
 460.09;  217.322;  -27.000;    0.000;244.32218
 460.68;  222.930;  -60.000;    0.000;282.92993
 461.27;  240.532;  -31.000;    0.000;271.53231
 461.86;  231.535;  -21.000;    0.000;252.53500
 462.45;  260.053;  -15.000;    0.000;275.05304
 463.04;  289.282;  -58.000;    0.000;347.28164
 463.64;  356.843;   23.000;    0.000;333.84290
 464.23;  338.688;   12.000;    0.000;326.68790
 464.82;  276.760;   46.000;    0.000;230.75974
 465.41;  305.139;  -64.000;    0.000;369.13948
 466.00;  230.812;  -58.000;    0.000;288.81160
 466.59;  283.474;  -69.000;    0.000;352.47390
 467.18;  330.627;  -23.000;    0.000;353.62681
 467.77;  304.365;  -52.000;    0.000;356.36481
 468.37;  308.567;  -55.000;    0.000;363.56689
 468.96;  307.532;  -18.000;    0.000;325.53231
 469.55;  349.621;   10.000;    0.000;339.62144
 470.14;  318.662; -112.000;    0.000;430.66197
 470.73;  360.642;  -19.000;    0.000;379.64200
 471.32;  434.313;  -10.000;    0.000;444.31294
 471.91;  358.901;  -58.000;    0.000;416.90073
 472.50;  373.305;  -38.000;    0.000;411.30489
 473.09;  333.508;  -33.000;    0.000;366.50848
 473.68;  528.789;   48.000;    0.000;480.78894
 474.27;  413.990;  -48.000;    0.000;461.98985
 474.86;  341.924;  -32.000;    0.000;373.92397
 475.46;  416.117;  -48.000;    0.000;464.11682
 476.05;  524.039;   53.000;    0.000;471.03903
 476.64;  418.428;  -33.000;    0.000;451.42800
 477.23;  455.365;  -57.000;    0.000;512.36481
 477.82;  369.082;  -11.000;    0.000;380.08225
 478.41;  436.151;  -55.000;    0.000;491.15140
 479.00;  565.399;  -29.000;    0.000;594.39938
 479.59;  517.025;  -43.000;    0.000;560.02501
 480.18;  618.947;   20.000;    0.000;598.94663
 480.77;  538.843;  -90.000;    0.000;628.84290
 481.36;  498.903;  -27.000;    0.000;525.90341
 481.95;  566.183;  -15.000;    0.000;581.18329
 482.54;  534.359;  -65.000;    0.000;599.35944
 483.13;  575.984;  -49.000;    0.000;624.98448
 483.72;  586.413;  -90.000;    0.000;676.41340
 484.31;  559.238;  -68.000;    0.000;627.23783
 484.90;  597.514;  -57.000;    0.000;654.51444
 485.49;  620.528;  -55.000;    0.000;675.52845
 486.08;  693.284;  -68.000;    0.000;761.28374
 486.67;  685.932;   30.000;    0.000;655.93203
 487.26;  720.768;  -49.000;    0.000;769.76779
 487.85;  604.385;  -51.000;    0.000;655.38478
 488.44;  626.010;  -63.000;    0.000;689.01041
 489.03;  710.998;  -15.000;    0.000;725.99849
 489.62;  787.872;  -58.000;    0.000;845.87152
 490.21;  799.782; -101.000;    0.000;900.78240
 490.80;  803.690;   31.000;    0.000;772.69000
 491.39;  853.756;  -76.000;    0.000;929.75647
 491.98;  862.422;   43.000;    0.000;819.42204
 492.57;  911.935;   66.000;    0.000;845.93471
 493.16;  916.676;  -30.000;    0.000;946.67599
 493.75;  918.832;  -45.000;    0.000;963.83157
 494.34;  902.359;   11.000;    0.000;891.35885
 494.93;  968.347;  -35.000;    0.000;1003.34693
 495.52;  847.667;  -56.000;    0.000;903.66734
 496.11;  935.961;  -64.000;    0.000;999.96123
 496.70;  878.826;  -16.000;    0.000;894.82621
 497.29;  897.160;  -15.000;    0.000;912.16004
 497.88; 1007.860;   11.000;    0.000;996.86019
 498.47; 1009.059;   47.000;    0.000;962.05900
 499.06; 1031.702;   57.000;    0.000;974.70192
 499.64; 1003.379;   -9.000;    0.000;1012.37882
 500.23; 1070.298;   33.000;    0.000;1037.29834
 500.82; 1115.584;  -15.000;    0.000;1130.58359
 501.41; 1086.950;   66.000;    0.000;1020.94990
 502.00; 1085.797;  -28.000;    0.000;1113.79700
 502.59; 1133.782;   24.000;    0.000;1109.78240
 503.18; 1059.454;  -20.000;    0.000;1079.45393
 503.77; 1047.489;   41.000;    0.000;1006.48851
 504.36; 1220.938;    2.000;    0.000;1218.93799
 504.95; 1077.661;  -17.000;    0.000;1094.66138
 505.54; 1100.221;   31.000;    0.000;1069.22055
 506.12; 1307.514;  195.000;    0.000;1112.51444
 506.71; 1133.532;   38.000;    0.000;1095.53173
 507.30; 1154.570;  104.000;    0.000;1050.56958
 507.89; 1098.621;   31.000;    0.000;1067.62144
 508.48; 1153.189;   76.000;    0.000;1077.18866
 509.07; 1254.731;   53.000;    0.000;1201.73112
 509.66; 1305.396;   94.000;    0.000;1211.39611
 510.25; 1128.760;   33.000;    0.000;1095.75974
 510.84; 1167.745;   78.000;    0.000;1089.74514
 511.42; 1206.428;   15.000;    0.000;1191.42800
 512.01; 1406.076;  199.000;    0.000;1207.07570
 512.60; 1333.909;  102.000;    0.000;1231.90937
 513.19; 1288.676;  133.000;    0.000;1155.67599
 513.78; 1263.304;  122.000;    0.000;1141.30430
 514.37; 1362.431;  162.000;    0.000;1200.43068
 514.95; 1385.658;  123.000;    0.000;1262.65811
 515.54; 1409.843;  118.000;    0.000;1291.84290
 516.13; 1351.909;  102.000;    0.000;1249.90937
 516.72; 1459.232;  180.000;    0.000;1279.23188
 517.31; 1487.396;  170.000;    0.000;1317.39611
 517.90; 1486.785;   74.000;    0.000;1412.78508
 518.48; 1365.094;  128.000;    0.000;1237.09358
 519.07; 1527.494;  176.000;    0.000;1351.49446
 519.66; 1617.200;  219.000;    0.000;1398.19999
 520.25; 1544.690;  104.000;    0.000;1440.69000
 520.84; 1668.367;  170.000;    0.000;1498.36749
 521.43; 1647.975;  191.000;    0.000;1456.97525
 522.01; 1751.854;  269.000;    0.000;1482.85423
 522.60; 1763.929;  202.000;    0.000;1561.92934
 523.19; 1682.301;  165.000;    0.000;1517.30103
 523.78; 1694.290;  220.000;    0.000;1474.28970
 524.37; 1724.339;  153.000;    0.000;1571.33888
 524.95; 1741.312;  181.000;    0.000;1560.31236
 525.54; 1757.229;  152.000;    0.000;1605.22919
 526.13; 1808.687;  141.000;    0.000;1667.68731
 526.72; 1864.592;  151.000;    0.000;1713.59164
 527.30; 1714.010;  121.000;    0.000;1593.00982
 527.89; 1729.125;  108.000;    0.000;1621.12546
 528.48; 1848.269;  133.000;    0.000;1715.26914
 529.07; 1838.463;  124.000;    0.000;1714.46257
 529.65; 2032.814;  240.000;    0.000;1792.81370
 530.24; 2064.411;  140.000;    0.000;1924.41071
 530.83; 1836.554;   69.000;    0.000;1767.55438
 531.42; 1962.949;  184.000;    0.000;1778.94931
 532.00; 2034.111;  159.000;    0.000;1875.11086
 532.59; 2048.453;  153.000;    0.000;1895.45334
 533.18; 2039.350;  113.000;    0.000;1926.34962
 533.77; 2187.852;  206.000;    0.000;1981.85155
 534.35; 2143.820;  155.000;    0.000;1988.81966
 534.94; 2067.993;   77.000;    0.000;1990.99253
 535.53; 2059.644;  109.000;    0.000;1950.64351
 536.12; 2208.082;   68.000;    0.000;2140.08225
 536.70; 2138.972;   98.000;    0.000;2040.97197
 537.29; 2171.693;   71.000;    0.000;2100.69268
 537.88; 2199.745;  103.000;    0.000;2096.74455
 538.46; 2233.491;   40.000;    0.000;2193.49119
 539.05; 2184.840;   43.000;    0.000;2141.83963
 539.64; 2164.816;   68.000;    0.000;2096.81638
 540.23; 2244.165;  108.000;    0.000;2136.16541
 540.81; 2349.324;  163.000;    0.000;2186.32368
 541.40; 2212.428;   45.000;    0.000;2167.42800
 541.99; 2171.165;   -1.000;    0.000;2172.16541
 542.57; 2134.727;   49.000;    0.000;2085.72726
 543.16; 2250.232;   39.000;    0.000;2211.23188
 543.75; 2343.534;   56.000;    0.000;2287.53382
 544.33; 2294.641;   44.000;    0.000;2250.64082
 544.92; 2234.404;   90.000;    0.000;2144.40416
 545.51; 2434.382;   86.000;    0.000;2348.38151
 546.09; 2375.370;  104.000;    0.000;2271.37018
 546.68; 2450.604;  103.000;    0.000;2347.60356
 547.27; 2371.782;   33.000;    0.000;2338.78181
 547.85; 2448.237;   42.000;    0.000;2406.23725
 548.44; 2339.989;  -18.000;    0.000;2357.98926
 549.03; 2625.205;   41.000;    0.000;2584.20536
 549.61; 2551.396;    8.000;    0.000;2543.39611
 550.20; 2645.401;   40.000;    0.000;2605.40148
 550.78; 2692.304;   70.000;    0.000;2622.30371
 551.37; 2753.623;   74.000;    0.000;2679.62295
 551.96; 2652.370;   59.000;    0.000;2593.36959
 552.54; 2730.875;   13.000;    0.000;2717.87479
 553.13; 2746.733;  -15.000;    0.000;2761.73322
 553.72; 2769.693;   -2.000;    0.000;2771.69268
 554.30; 2835.485;   56.000;    0.000;2779.48464
 554.89; 2853.338;  -13.000;    0.000;2866.33770
 555.47; 3036.332;   17.000;    0.000;3019.33233
 556.06; 2928.062;   76.000;    0.000;2852.06168
 556.65; 2972.064;   68.000;    0.000;2904.06437
 557.23; 3009.831;   47.000;    0.000;2962.83099
 557.82; 3060.179;   10.000;    0.000;3050.17942
 558.40; 2911.306;  -50.000;    0.000;2961.30640
 558.99; 3053.030;    5.000;    0.000;3048.03038
 559.58; 3077.725;   61.000;    0.000;3016.72458
 560.16; 3007.229;  -38.000;    0.000;3045.22919
 560.75; 3077.241;   34.000;    0.000;3043.24052
 561.33; 3333.255;   86.000;    0.000;3247.25453
 561.92; 3179.647;    2.000;    0.000;3177.64678
 562.50; 3447.678;   27.000;    0.000;3420.67808
 563.09; 3379.779;  -14.000;    0.000;3393.77912
 563.68; 3223.151;   -4.000;    0.000;3227.15081
 564.26; 3415.321;   14.000;    0.000;3401.32100
 564.85; 3403.874;   10.000;    0.000;3393.87420
 565.43; 3376.165;   -1.000;    0.000;3377.16541
 566.02; 3464.528;   -6.000;    0.000;3470.52845
 566.60; 3567.903;  -17.000;    0.000;3584.90282
 567.19; 3424.122;  -22.000;    0.000;3446.12219
 567.77; 3555.104;   -8.000;    0.000;3563.10431
 568.36; 3653.603;   18.000;    0.000;3635.60297
 568.94; 3446.540;  -28.000;    0.000;3474.53978
 569.53; 3761.194;   12.000;    0.000;3749.19403
 570.11; 3706.320;   -8.000;    0.000;3714.32041
 570.70; 3752.557;  -41.000;    0.000;3793.55707
 571.28; 3814.670;  -30.000;    0.000;3844.67003
 571.87; 3662.312;  -55.000;    0.000;3717.31177
 572.45; 3735.162;   23.000;    0.000;3712.16214
 573.04; 3809.197;  -31.000;    0.000;3840.19730
 573.62; 3757.661;  -35.000;    0.000;3792.66079
 574.21; 3900.142;   84.000;    0.000;3816.14216
 574.79; 4034.324;   12.000;    0.000;4022.32427
 575.38; 3842.583;  -88.000;    0.000;3930.58300
 575.96; 3981.208;  -28.000;    0.000;4009.20804
 576.55; 3893.309;  -45.000;    0.000;3938.30908
 577.13; 4106.966;   15.000;    0.000;4091.96601
 577.72; 3970.955;  -31.000;    0.000;4001.95468
 578.30; 3987.468;  -37.000;    0.000;4024.46794
 578.89; 4033.450;  -59.000;    0.000;4092.45007
 579.47; 4188.649;  -15.000;    0.000;4203.64947
 580.06; 4168.517;   58.000;    0.000;4110.51712
 580.64; 4178.713;   -2.000;    0.000;4180.71266
 581.23; 4125.661;  -42.000;    0.000;4167.66079
 581.81; 4436.814;  142.000;    0.000;4294.81370
 582.39; 4294.851;  -47.000;    0.000;4341.85096
 582.98; 4212.457;  -50.000;    0.000;4262.45662
 583.56; 4221.869;   -2.000;    0.000;4223.86883
 584.15; 4333.399;   10.000;    0.000;4323.39879
 584.73; 4388.050;   12.000;    0.000;4376.05036
 585.32; 4375.451;   18.000;    0.000;4357.45066
 585.90; 4474.137;  154.000;    0.000;4320.13679
 586.48; 4343.116;  -22.000;    0.000;4365.11623
 587.07; 4364.324;  -12.000;    0.000;4376.32368
 587.65; 4544.289;   31.000;    0.000;4513.28911
 588.24; 4209.799;  -42.000;    0.000;4251.79910
 588.82; 4353.462;  -40.000;    0.000;4393.46199
 589.41; 5800.145; 1798.000;    0.000;4002.14485
 589.99; 4392.070;  -29.000;    0.000;4421.07033
 590.57; 4304.923;  -60.000;    0.000;4364.92279
 591.16; 4596.837;   94.000;    0.000;4502.83694
 591.74; 4384.583;   29.000;    0.000;4355.58300
 592.32; 4374.309;   18.000;    0.000;4356.30908
 592.91; 4522.681;   14.000;    0.000;4508.68136
 593.49; 4520.413;  -59.000;    0.000;4579.41281
 594.08; 4413.243;  -36.000;    0.000;4449.24320
 594.66; 4534.249;  -12.000;    0.000;4546.24858
 595.24; 4503.551;   -2.000;    0.000;4505.55111
 595.83; 4468.909;  -48.000;    0.000;4516.90878
 596.41; 4569.874;  -11.000;    0.000;4580.87362
 596.99; 4587.629;   49.000;    0.000;4538.62890
 597.58; 4531.076;   -5.000;    0.000;4536.07570
 598.16; 4488.042;   60.000;    0.000;4428.04171
 598.74; 4744.808;   41.000;    0.000;4703.80774
 599.33; 4706.615;  -18.000;    0.000;4724.61489
 599.91; 4665.226;  -61.000;    0.000;4726.22592
 600.49; 4684.612;  -31.000;    0.000;4715.61221
 601.08; 4821.421;   73.000;    0.000;4748.42145
 601.66; 4796.249;  -16.000;    0.000;4812.24858
 602.24; 4746.854; -102.000;    0.000;4848.85364
 602.83; 4759.715;  -55.000;    0.000;4814.71534
 603.41; 4765.335;  -11.000;    0.000;4776.33501
 603.99; 4795.002;  -52.000;    0.000;4847.00177
 604.58; 4783.747;  -11.000;    0.000;4794.74723
 605.16; 4823.788;  -26.000;    0.000;4849.78777
 605.74; 4844.583;  -59.000;    0.000;4903.58300
 606.33; 4810.041;  -34.000;    0.000;4844.04112
 606.91; 4988.139;  -21.000;    0.000;5009.13948
 607.49; 5146.753;  -58.000;    0.000;5204.75319
 608.07; 4876.499;  -48.000;    0.000;4924.49925
 608.66; 5018.032;  -68.000;    0.000;5086.03248
 609.24; 4981.223;   16.000;    0.000;4965.22264
 609.82; 5270.185;  -69.000;    0.000;5339.18538
 610.41; 4981.332;  -58.000;    0.000;5039.33233
 610.99; 5135.877;  -97.000;    0.000;5232.87689
 611.57; 4822.407;  -33.000;    0.000;4855.40685
 612.15; 5099.341;   15.000;    0.000;5084.34097
 612.74; 5004.441;   74.000;    0.000;4930.44142
 613.32; 4868.522;  -30.000;    0.000;4898.52249
 613.90; 4942.076;   42.000;    0.000;4900.07570
 614.48; 4958.900;   -3.000;    0.000;4961.90014
 615.07; 4695.154;  -48.000;    0.000;4743.15408
 615.65; 4863.046;  -30.000;    0.000;4893.04649
 616.23; 4877.548;  -48.000;    0.000;4925.54842
 616.81; 4837.298;  -18.000;    0.000;4855.29834
 617.40; 4694.466;  -13.000;    0.000;4707.46585
 617.98; 4911.772;   -7.000;    0.000;4918.77166
 618.56; 5086.921;    0.000;    0.000;5086.92070
 619.14; 5224.788;  -47.000;    0.000;5271.78836
 619.72; 5187.892;  -76.000;    0.000;5263.89208
 620.31; 5483.707;    9.000;    0.000;5474.70729
 620.89; 5355.762;   -9.000;    0.000;5364.76183
 621.47; 5309.425;  -51.000;    0.000;5360.42473
 622.05; 5416.822;  -29.000;    0.000;5445.82234
 622.63; 5485.448;  -33.000;    0.000;5518.44797
 623.22; 5451.681;  -65.000;    0.000;5516.68077
 623.80; 5607.137;    7.000;    0.000;5600.13679
 624.38; 5700.453;   71.000;    0.000;5629.45334
 624.96; 5434.457;  -75.000;    0.000;5509.45662
 625.54; 5609.967;  -66.000;    0.000;5675.96660
 626.13; 5703.335;  -17.000;    0.000;5720.33501
 626.71; 5935.710;  218.000;    0.000;5717.70997
 627.29; 5615.356;  -33.000;    0.000;5648.35616
 627.87; 5834.528;  -49.000;    0.000;5883.52845
 628.45; 5522.762;  -64.000;    0.000;5586.76183
 629.03; 5811.001;   18.000;    0.000;5793.00118
 629.62; 5729.802;  -58.000;    0.000;5787.80237
 630.20; 5660.070; -100.000;    0.000;5760.07033
 630.78; 5697.246;  -39.000;    0.000;5736.24589
 631.36; 5892.834;  -65.000;    0.000;5957.83426
 631.94; 5765.479;  -40.000;    0.000;5805.47927
 632.52; 5692.128;  -14.000;    0.000;5706.12756
 633.10; 5931.869;  -27.000;    0.000;5958.86883
 633.68; 5976.405;  -43.000;    0.000;6019.40475
 634.27; 5849.889;  -35.000;    0.000;5884.88881
 634.85; 5840.154;  -31.000;    0.000;5871.15408
 635.43; 5973.097; -126.000;    0.000;6099.09685
 636.01; 5825.779;  -31.000;    0.000;5856.77912
 636.59; 5877.304;  -66.000;    0.000;5943.30371
 637.17; 6015.809;  -57.000;    0.000;6072.80892
 637.75; 6005.610;  -68.000;    0.000;6073.60952
 638.33; 5917.385;  -62.000;    0.000;5979.38478
 638.91; 5886.085;  -34.000;    0.000;5920.08493
 639.50; 5845.820;  -40.000;    0.000;5885.82025
 640.08; 5928.593;  -83.000;    0.000;6011.59264
 640.66; 5993.608;  -41.000;    0.000;6034.60835
 641.24; 5991.624;   46.000;    0.000;5945.62405
 641.82; 5939.640;   10.000;    0.000;5929.63976
 642.40; 6024.655;  -41.000;    0.000;6065.65546
 642.98; 6038.671;  -95.000;    0.000;6133.67116
 643.56; 6089.687;  -25.000;    0.000;6114.68687
 644.14; 5880.703;  -68.000;    0.000;5948.70257
 644.72; 5836.718;   -4.000;    0.000;5840.71828
 645.30; 5930.734;  -28.000;    0.000;5958.73398
 645.88; 6101.750;  -24.000;    0.000;6125.74969
 646.46; 5979.765;  -24.000;    0.000;6003.76539
 647.04; 5984.781;  -61.000;    0.000;6045.78109
 647.62; 6052.797;   47.000;    0.000;6005.79680
 648.20; 6119.813;    1.000;    0.000;6118.81250
 648.78; 6057.828;   11.000;    0.000;6046.82821
 649.36; 5924.844;  -47.000;    0.000;5971.84391
 649.94; 6000.860; -112.000;    0.000;6112.85962
 650.52; 6114.875;  -65.000;    0.000;6179.87532
 651.11; 6130.891;  -47.000;    0.000;6177.89102
 651.69; 6129.907;  -41.000;    0.000;6170.90673
 652.27; 6078.922;  -11.000;    0.000;6089.92243
 652.85; 6030.938;  -45.000;    0.000;6075.93814
 653.43; 5991.954;  -24.000;    0.000;6015.95384
 654.01; 6007.970;  -58.000;    0.000;6065.96955
 654.59; 6059.985;  -52.000;    0.000;6111.98525
 655.17; 6142.001;  -14.000;    0.000;6156.00095
 655.74; 6206.017;  -58.000;    0.000;6264.01666
 656.32; 6359.032;  -67.000;    0.000;6426.03236
 656.90; 6405.048;  -24.000;    0.000;6429.04807
 657.48; 6503.064;   67.000;    0.000;6436.06377
 658.06; 6444.079;  -68.000;    0.000;6512.07948
 658.64; 6710.095;  -44.000;    0.000;6754.09518
 659.22; 6512.111;  -19.000;    0.000;6531.11088
 659.80; 6767.127;  -57.000;    0.000;6824.12659
 660.38; 6830.142; -114.000;    0.000;6944.14229
 660.96; 6757.158; -123.000;    0.000;6880.15800
 661.54; 7026.174;  -45.000;    0.000;7071.17370
 662.12; 7029.189;  -68.000;    0.000;7097.18941
 662.70; 6904.205;  -94.000;    0.000;6998.20511
 663.28; 6616.221; -106.000;    0.000;6722.22081
 663.86; 6567.237;   -5.000;    0.000;6572.23652
 664.44; 6650.252;  -65.000;    0.000;6715.25222
 665.02; 6445.268;  -11.000;    0.000;6456.26793
 665.60; 6413.284;  -20.000;    0.000;6433.28363
 666.18; 6259.299;  -24.000;    0.000;6283.29934
 666.75; 6418.315;   73.000;    0.000;6345.31504
 667.33; 6370.331;  -44.000;    0.000;6414.33074
 667.91; 6675.346;  134.000;    0.000;6541.34645
 668.49; 6403.362;   21.000;    0.000;6382.36215
 669.07; 6462.378;  -27.000;    0.000;6489.37786
 669.65; 6442.394;  -49.000;    0.000;6491.39356
 670.23; 6496.409;  -75.000;    0.000;6571.40927
 670.81; 6526.425;  -18.000;    0.000;6544.42497
 671.39; 6326.441; -128.000;    0.000;6454.44067
 671.97; 6426.456;  -47.000;    0.000;6473.45638
 672.54; 6602.472;   11.000;    0.000;6591.47208
 673.12; 6669.488;   -1.000;    0.000;6670.48779
 673.70; 6736.503;  -22.000;    0.000;6758.50349
 674.28; 6832.519;   19.000;    0.000;6813.51920
 674.86; 6594.535;  -70.000;    0.000;6664.53490
 675.44; 6612.551;  -36.000;    0.000;6648.55060
 676.02; 6795.566;    3.000;    0.000;6792.56631
 676.59; 6799.582;   34.000;    0.000;6765.58201
 677.17; 6835.598;    1.000;    0.000;6834.59772
 677.75; 6632.613;  -62.000;    0.000;6694.61342
 678.33; 6895.629;  -83.000;    0.000;6978.62913
 678.91; 6876.645;  -44.000;    0.000;6920.64483
 679.49; 6874.661;  -14.000;    0.000;6888.66054
 680.06; 6994.676;  -71.000;    0.000;7065.67624
 680.64; 7025.692;  -38.000;    0.000;7063.69194
 681.22; 6880.708;  -21.000;    0.000;6901.70765
 681.80; 7077.723;  -83.000;    0.000;7160.72335
 682.38; 7132.739;  -44.000;    0.000;7176.73906
 682.96; 7262.755;  -10.000;    0.000;7272.75476
 683.53; 7113.770;   12.000;    0.000;7101.77047
 684.11; 7325.786;    9.000;    0.000;7316.78617
 684.69; 7275.802; -121.000;    0.000;7396.80187
 685.27; 7385.818;   29.000;    0.000;7356.81758
 685.85; 7526.833;  -30.000;    0.000;7556.83328
 686.42; 7427.849;  -51.000;    0.000;7478.84899
 687.00; 7347.865;  -37.000;    0.000;7384.86469
 687.58; 7362.880;  -45.000;    0.000;7407.88040
 688.16; 7497.896;  -65.000;    0.000;7562.89610
 688.73; 7438.912;  -66.000;    0.000;7504.91180
 689.31; 7452.928;  -23.000;    0.000;7475.92751
 689.89; 7514.943;  -35.000;    0.000;7549.94321
 690.47; 7274.959;   34.000;    0.000;7240.95892
 691.04; 7117.975;  -65.000;    0.000;7182.97462
 691.62; 7354.990;  -42.000;    0.000;7396.99033
 692.20; 7048.006;  -92.000;    0.000;7140.00603
 692.78; 7293.022;  -33.000;    0.000;7326.02173
 693.35; 7125.037;   -6.000;    0.000;7131.03744
 693.93; 7292.053;  -44.000;    0.000;7336.05314
 694.51; 7227.069;  -94.000;    0.000;7321.06885
 695.09; 7157.085;  -77.000;    0.000;7234.08455
 695.66; 7248.100;  -89.000;    0.000;7337.10026
 696.24; 7018.116; -118.000;    0.000;7136.11596
 696.82; 7233.132; -107.000;    0.000;7340.13166
 697.39; 7057.147;  -92.000;    0.000;7149.14737
 697.97; 6874.163;  -15.000;    0.000;6889.16307
 698.55; 6975.179;  -44.000;    0.000;7019.17878
 699.13; 6938.194;  -84.000;    0.000;7022.19448
 699.70; 6620.210;  -95.000;    0.000;6715.21019
 700.28; 6842.226;  -67.000;    0.000;6909.22589
 700.86; 6944.242;  -75.000;    0.000;7019.24159
 701.43; 6745.257;  -49.000;    0.000;6794.25730
 702.01; 6944.273;  -51.000;    0.000;6995.27300
 702.59; 6895.289;  -48.000;    0.000;6943.28871
 703.16; 6830.304; -107.000;    0.000;6937.30441
 703.74; 6569.320;  -48.000;    0.000;6617.32012
 704.32; 6970.336;    4.000;    0.000;6966.33582
 704.89; 6565.352;  -66.000;    0.000;6631.35152
 705.47; 6633.367;  -85.000;    0.000;6718.36723
 706.05; 6636.383;  -48.000;    0.000;6684.38293
 706.62; 6406.399;  -59.000;    0.000;6465.39864
 707.20; 6700.414;  -85.000;    0.000;6785.41434
 707.78; 6638.430;  -60.000;    0.000;6698.43005
 708.35; 6510.446; -109.000;    0.000;6619.44575
 708.93; 6499.461;  -43.000;    0.000;6542.46145
 709.51; 6418.477;  -88.000;    0.000;6506.47716
 710.08; 6363.493;  -96.000;    0.000;6459.49286
 710.66; 6566.509;  -57.000;    0.000;6623.50857
 711.23; 6560.524;  -30.000;    0.000;6590.52427
 711.81; 6397.540;  -84.000;    0.000;6481.53998
 712.39; 6336.556;  -49.000;    0.000;6385.55568
 712.96; 6555.571;  -95.000;    0.000;6650.57139
 713.54; 6372.587;  -40.000;    0.000;6412.58709
 714.11; 6507.603;  -44.000;    0.000;6551.60279
 714.69; 6412.618;  -69.000;    0.000;6481.61850
 715.27; 6469.634;  -65.000;    0.000;6534.63420
 715.84; 6353.650;  -19.000;    0.000;6372.64991
 716.42; 6403.666;  -53.000;    0.000;6456.66561
 716.99; 6311.681; -111.000;    0.000;6422.68132
 717.57; 6285.697;  -43.000;    0.000;6328.69702
 718.15; 6210.713; -102.000;    0.000;6312.71272
 718.72; 6292.728;  -48.000;    0.000;6340.72843
 719.30; 6333.744; -118.000;    0.000;6451.74413
 719.87; 6331.760;  -42.000;    0.000;6373.75984
 720.45; 6284.776; -107.000;    0.000;6391.77554
 721.02; 6462.791;  -88.000;    0.000;6550.79125
 721.60; 6161.807;  -75.000;    0.000;6236.80695
 722.17; 6202.823;  -60.000;    0.000;6262.82265
 722.75; 6207.838;  -92.000;    0.000;6299.83836
 723.33; 6415.854; -104.000;    0.000;6519.85406
 723.90; 6500.870;   19.000;    0.000;6481.86977
 724.48; 6368.885;  -80.000;    0.000;6448.88547
 725.05; 6276.901;  -81.000;    0.000;6357.90118
 725.63; 6177.917;  -69.000;    0.000;6246.91688
 726.20; 6191.933;  -27.000;    0.000;6218.93258
 726.78; 6333.948;  -79.000;    0.000;6412.94829
 727.35; 6593.964;   17.000;    0.000;6576.96399
 727.93; 6511.980;  -73.000;    0.000;6584.97970
 728.50; 6300.995;   32.000;    0.000;6268.99540
 729.08; 6278.011;  -54.000;    0.000;6332.01111
 729.65; 6297.027;   73.000;    0.000;6224.02681
 730.23; 6075.043;  -78.000;    0.000;6153.04251
 730.80; 6204.058;  -70.000;    0.000;6274.05822
 731.38; 6314.074;  -73.000;    0.000;6387.07392
 731.95; 6315.090;   36.000;    0.000;6279.08963
 732.53; 6372.105; -116.000;    0.000;6488.10533
 733.10; 6123.121;  -20.000;    0.000;6143.12104
 733.68; 6278.137;  -58.000;    0.000;6336.13674
 734.25; 6353.152;  -38.000;    0.000;6391.15244
 734.82; 6313.168;  -49.000;    0.000;6362.16815
 735.40; 6212.184;  -67.000;    0.000;6279.18385
 735.97; 6217.200;  -49.000;    0.000;6266.19956
 736.55; 6289.215;  -10.000;    0.000;6299.21526
 737.12; 6314.231;  -56.000;    0.000;6370.23097
 737.70; 6234.247; -118.000;    0.000;6352.24667
 738.27; 6344.262;   -2.000;    0.000;6346.26237
 738.85; 6342.278;  -80.000;    0.000;6422.27808
 739.42; 6336.294;  -32.000;    0.000;6368.29378
 739.99; 6403.309;  -75.000;    0.000;6478.30949
 740.57; 6163.325;  -96.000;    0.000;6259.32519
 741.14; 6548.341;   -6.000;    0.000;6554.34090
 741.72; 6295.357;  -79.000;    0.000;6374.35660
 742.29; 6506.372;  -83.000;    0.000;6589.37230
 742.87; 6433.388;  -34.000;    0.000;6467.38801
 743.44; 6421.404;  -55.000;    0.000;6476.40371
 744.01; 6596.419;  -52.000;    0.000;6648.41942
 744.59; 6475.435;  -49.000;    0.000;6524.43512
 745.16; 6507.451;   -2.000;    0.000;6509.45083
 745.73; 6234.467;  -68.000;    0.000;6302.46653
 746.31; 6506.482;  -78.000;    0.000;6584.48223
 746.88; 6450.498; -113.000;    0.000;6563.49794
 747.46; 6593.514;  -33.000;    0.000;6626.51364
 748.03; 6485.529;  -90.000;    0.000;6575.52935
 748.60; 6571.545;  -71.000;    0.000;6642.54505
 749.18; 6535.561;  -94.000;    0.000;6629.56076
 749.75; 6589.576;   11.000;    0.000;6578.57646
 750.32; 6452.592;  -90.000;    0.000;6542.59216
 750.90; 6490.608;  -68.000;    0.000;6558.60787
 751.47; 6515.624;    5.000;    0.000;6510.62357
 752.04; 6553.639;  -42.000;    0.000;6595.63928
 752.62; 6252.655;  -94.000;    0.000;6346.65498
 753.19; 6346.671;  -72.000;    0.000;6418.67069
 753.76; 6527.686;  -73.000;    0.000;6600.68639
 754.34; 6511.702;  -38.000;    0.000;6549.70210
 754.91; 6470.718;  -52.000;    0.000;6522.71780
 755.48; 6462.734;  -44.000;    0.000;6506.73350
 756.06; 6449.749;   19.000;    0.000;6430.74921
 756.63; 6421.765;   55.000;    0.000;6366.76491
 757.20; 6561.781;  -36.000;    0.000;6597.78062
 757.78; 6453.796;  -87.000;    0.000;6540.79632
 758.35; 6325.812;  -75.000;    0.000;6400.81203
 758.92; 6374.828;  -17.000;    0.000;6391.82773
 759.50; 6478.843;  -32.000;    0.000;6510.84343
 760.07; 6308.859; -105.000;    0.000;6413.85914
 760.64; 6192.875;  -95.000;    0.000;6287.87484
 761.21; 6414.891;  -32.000;    0.000;6446.89055
 761.79; 6369.906; -110.000;    0.000;6479.90625
 762.36; 6423.922;  -19.000;    0.000;6442.92196
 762.93; 6368.938;  -68.000;    0.000;6436.93766
 763.50; 6362.953; -102.000;    0.000;6464.95336
 764.08; 6233.969;  -83.000;    0.000;6316.96907
 764.65; 6394.985;  -60.000;    0.000;6454.98477
 765.22; 6242.000;  -73.000;    0.000;6315.00048
 765.79; 6435.016; -117.000;    0.000;6552.01618
 766.37; 6078.032;  -44.000;    0.000;6122.03189
 766.94; 6309.048;  -12.000;    0.000;6321.04759
 767.51; 6284.063;  -59.000;    0.000;6343.06329
 768.08; 6183.079;  -23.000;    0.000;6206.07900
 768.66; 6186.095;    4.000;    0.000;6182.09470
 769.23; 6261.110;  -49.000;    0.000;6310.11041
 769.80; 5937.126; -123.000;    0.000;6060.12611
 770.37; 6164.142;  -56.000;    0.000;6220.14182
 770.94; 6040.158;  -11.000;    0.000;6051.15752
 771.52; 5873.173; -125.000;    0.000;5998.17322
 772.09; 5973.189;  -22.000;    0.000;5995.18893
 772.66; 6019.205;  -36.000;    0.000;6055.20463
 773.23; 6090.220;  -63.000;    0.000;6153.22034
 773.80; 5872.236;  -32.000;    0.000;5904.23604
 774.38; 5883.252;  -82.000;    0.000;5965.25175
 774.95; 6069.267;  -10.000;    0.000;6079.26745
 775.52; 5754.283;  -19.000;    0.000;5773.28315
 776.09; 5837.299;   -4.000;    0.000;5841.29886
 776.66; 5810.315;  -65.000;    0.000;5875.31456
 777.24; 5858.330;  -72.000;    0.000;5930.33027
 777.81; 5817.346;  -24.000;    0.000;5841.34597
 778.38; 5833.362;  -84.000;    0.000;5917.36168
 778.95; 5761.377;  -59.000;    0.000;5820.37738
 779.52; 5767.393;    1.000;    0.000;5766.39308
 780.09; 5835.409;   93.000;    0.000;5742.40879
 780.66; 5621.424;    5.000;    0.000;5616.42449
 781.24; 5855.440;  -51.000;    0.000;5906.44020
 781.81; 5645.456;  -60.000;    0.000;5705.45590
 782.38; 5574.472;  -77.000;    0.000;5651.47161
 782.95; 5502.487; -116.000;    0.000;5618.48731
 783.52; 5509.503;  -67.000;    0.000;5576.50302
 784.09; 5496.519;    8.000;    0.000;5488.51872
 784.66; 5433.534;   39.000;    0.000;5394.53442
 785.23; 5383.550;  -73.000;    0.000;5456.55013
 785.80; 5299.566;  -59.000;    0.000;5358.56583
 786.38; 5389.582;  -54.000;    0.000;5443.58154
 786.95; 5304.597;  -61.000;    0.000;5365.59724
 787.52; 5095.613;  -79.000;    0.000;5174.61295
 788.09; 5330.629;  -88.000;    0.000;5418.62865
 788.66; 5242.644;  -46.000;    0.000;5288.64435
 789.23; 5343.660;  -56.000;    0.000;5399.66006
 789.80; 5240.676;  -57.000;    0.000;5297.67576
 790.37; 5272.691;  -75.000;    0.000;5347.69147
 790.94; 5447.707;   33.000;    0.000;5414.70717
 791.51; 5147.723;  -24.000;    0.000;5171.72288
 792.08; 4958.739; -115.000;    0.000;5073.73858
 792.65; 5198.754;  -12.000;    0.000;5210.75428
 793.22; 5140.770;  -62.000;    0.000;5202.76999
 793.80; 5212.786; -133.000;    0.000;5345.78569
 794.37; 5014.801;  -13.000;    0.000;5027.80140
 794.94; 4959.817;   41.000;    0.000;4918.81710
 795.51; 5097.833;  -25.000;    0.000;5122.83281
 796.08; 5176.849;  -36.000;    0.000;5212.84851
 796.65; 4914.864;  -63.000;    0.000;4977.86421
 797.22; 5047.880;  -82.000;    0.000;5129.87992
 797.79; 5170.896;   36.000;    0.000;5134.89562
 798.36; 4991.911; -136.000;    0.000;5127.91133
 798.93; 4960.927;  -49.000;    0.000;5009.92703
 799.50; 4899.943; -117.000;    0.000;5016.94274
 800.07; 5020.958; -122.000;    0.000;5142.95844
 800.64; 4879.974;  -57.000;    0.000;4936.97414
 801.21; 4926.990;  -21.000;    0.000;4947.98985
 801.78; 4849.006;  -70.000;    0.000;4919.00555
 802.35; 4763.021; -117.000;    0.000;4880.02126
 802.92; 4839.037;  -70.000;    0.000;4909.03696
 803.49; 4957.053;  -39.000;    0.000;4996.05267
 804.06; 5004.068;  -32.000;    0.000;5036.06837
 804.63; 4771.084;  -42.000;    0.000;4813.08407
 805.20; 4834.100;  -66.000;    0.000;4900.09978
 805.77; 4724.115;  -30.000;    0.000;4754.11548
 806.34; 4915.131; -111.000;    0.000;5026.13119
 806.91; 4885.147;  -69.000;    0.000;4954.14689
 807.47; 4776.163;  -74.000;    0.000;4850.16260
 808.04; 4858.178;  -58.000;    0.000;4916.17830
 808.61; 4903.194;  -88.000;    0.000;4991.19400
 809.18; 4766.210;  -46.000;    0.000;4812.20971
 809.75; 4675.225;  -70.000;    0.000;4745.22541
 810.32; 4935.241;  -84.000;    0.000;5019.24112
 810.89; 4826.257;  -38.000;    0.000;4864.25682
 811.46; 4776.273;   -7.000;    0.000;4783.27253
 812.03; 4742.288;  -38.000;    0.000;4780.28823
 812.60; 4728.304;  -62.000;    0.000;4790.30393
 813.17; 4632.320;  -53.000;    0.000;4685.31964
 813.74; 4738.335;   26.000;    0.000;4712.33534
 814.31; 4581.351;  -95.000;    0.000;4676.35105
 814.87; 4670.367;  -58.000;    0.000;4728.36675
 815.44; 4453.382;  -46.000;    0.000;4499.38246
 816.01; 4661.398;  -21.000;    0.000;4682.39816
 816.58; 4634.414; -116.000;    0.000;4750.41386
 817.15; 4469.430;  -56.000;    0.000;4525.42957
 817.72; 4514.445; -100.000;    0.000;4614.44527
 818.29; 4601.461;   22.000;    0.000;4579.46098
 818.86; 4569.477;   18.000;    0.000;4551.47668
 819.42; 4634.492;  -63.000;    0.000;4697.49239
 819.99; 4497.508;  -63.000;    0.000;4560.50809
 820.56; 4344.524; -119.000;    0.000;4463.52380
 821.13; 4559.539;  -16.000;    0.000;4575.53950
 821.70; 4567.555; -104.000;    0.000;4671.55520
 822.27; 4404.571;  -87.000;    0.000;4491.57091
 822.84; 4537.587;  -32.000;    0.000;4569.58661
 823.40; 4313.602;  -71.000;    0.000;4384.60232
 823.97; 4550.618;   47.000;    0.000;4503.61802
 824.54; 4388.634; -113.000;    0.000;4501.63373
 825.11; 4379.649; -132.000;    0.000;4511.64943
 825.68; 4501.665;  105.000;    0.000;4396.66513
 826.24; 4377.681;  -36.000;    0.000;4413.68084
 826.81; 4420.697;  -70.000;    0.000;4490.69654
 827.38; 4403.712;  -85.000;    0.000;4488.71225
 827.95; 4446.728;    5.000;    0.000;4441.72795
 828.52; 4509.744;  -72.000;    0.000;4581.74366
 829.08; 4333.759;  -53.000;    0.000;4386.75936
 829.65; 4373.775;  -74.000;    0.000;4447.77506
 830.22; 4518.791;   -8.000;    0.000;4526.79077
 830.79; 4222.806;  -90.000;    0.000;4312.80647
 831.36; 4365.822;  -77.000;    0.000;4442.82218
 831.92; 4489.838;   65.000;    0.000;4424.83788
 832.49; 4257.854;  -74.000;    0.000;4331.85359
 833.06; 4264.869;   -9.000;    0.000;4273.86929
 833.63; 4360.885;  -54.000;    0.000;4414.88499
 834.19; 4347.901;  -85.000;    0.000;4432.90070
 834.76; 4253.916;  -53.000;    0.000;4306.91640
 835.33; 4367.932; -124.000;    0.000;4491.93211
 835.90; 4195.948;  -76.000;    0.000;4271.94781
 836.46; 4391.964;  -92.000;    0.000;4483.96352
 837.03; 4376.979;  -74.000;    0.000;4450.97922
 837.60; 4259.995;  -85.000;    0.000;4344.99492
 838.17; 4495.011;  -23.000;    0.000;4518.01063
 838.73; 4401.026;  -23.000;    0.000;4424.02633
 839.30; 4343.042;   -9.000;    0.000;4352.04204
 839.87; 4304.058;    4.000;    0.000;4300.05774
 840.43; 4259.073;  -48.000;    0.000;4307.07345
 841.00; 4505.089;    2.000;    0.000;4503.08915
 841.57; 4496.105;  -49.000;    0.000;4545.10485
 842.14; 4303.121;  -79.000;    0.000;4382.12056
 842.70; 4347.136;  -59.000;    0.000;4406.13626
 843.27; 4243.152;  -73.000;    0.000;4316.15197
 843.84; 4510.168;  -40.000;    0.000;4550.16767
 844.40; 4259.183;  -79.000;    0.000;4338.18338
 844.97; 4295.199;  -51.000;    0.000;4346.19908
 845.54; 4309.215;  -58.000;    0.000;4367.21478
 846.10; 4321.230;  -36.000;    0.000;4357.23049
 846.67; 4120.246; -103.000;    0.000;4223.24619
 847.24; 4313.262;  -85.000;    0.000;4398.26190
 847.80; 4195.278;  -66.000;    0.000;4261.27760
 848.37; 4334.293;  -96.000;    0.000;4430.29331
 848.94; 4308.309;   33.000;    0.000;4275.30901
 849.50; 4363.325;   19.000;    0.000;4344.32471
 850.07; 4250.340;  -69.000;    0.000;4319.34042
 850.63; 4297.356;   24.000;    0.000;4273.35612
 851.20; 4254.372;  -85.000;    0.000;4339.37183
 851.77; 4221.388;  -61.000;    0.000;4282.38753
 852.33; 4233.403;  -29.000;    0.000;4262.40324
 852.90; 4276.419;  -66.000;    0.000;4342.41894
 853.47; 4284.435;  -21.000;    0.000;4305.43464
 854.03; 4182.450;  -94.000;    0.000;4276.45035
 854.60; 4434.466;  -39.000;    0.000;4473.46605
 855.16; 4456.482;  -10.000;    0.000;4466.48176
 855.73; 4165.497;  -22.000;    0.000;4187.49746
 856.30; 4431.513;   22.000;    0.000;4409.51317
 856.86; 4182.529;  -58.000;    0.000;4240.52887
 857.43; 4214.545;   -3.000;    0.000;4217.54458
 857.99; 4201.560;  -14.000;    0.000;4215.56028
 858.56; 4176.576; -122.000;    0.000;4298.57598
 859.12; 4101.592;  -30.000;    0.000;4131.59169
 859.69; 4294.607;  -84.000;    0.000;4378.60739
 860.26; 4204.623;  -54.000;    0.000;4258.62310
 860.82; 4072.639;  -50.000;    0.000;4122.63880
 861.39; 4287.655;  -68.000;    0.000;4355.65451
 861.95; 4066.670;  -48.000;    0.000;4114.67021
 862.52; 4186.686;   -1.000;    0.000;4187.68591
 863.08; 4063.702;  -66.000;    0.000;4129.70162
 863.65; 4175.717;  -14.000;    0.000;4189.71732
 864.21; 4077.733;  -69.000;    0.000;4146.73303
 864.78; 4242.749;  -13.000;    0.000;4255.74873
 865.34; 4376.764;  154.000;    0.000;4222.76444
 865.91; 4019.780;  -38.000;    0.000;4057.78014
 866.47; 4009.796;  -58.000;    0.000;4067.79584
 867.04; 4200.812;  -77.000;    0.000;4277.81155
 867.61; 4002.827; -110.000;    0.000;4112.82725
 868.17; 4073.843;  -12.000;    0.000;4085.84296
 868.74; 4107.859;  -60.000;    0.000;4167.85866
 869.30; 3936.874;  -72.000;    0.000;4008.87437
 869.86; 4009.890; -110.000;    0.000;4119.89007
 870.43; 3904.906;  -72.000;    0.000;3976.90577
 870.99; 3888.921; -115.000;    0.000;4003.92148
 871.56; 4101.937;  -63.000;    0.000;4164.93718
 872.12; 3837.953;  -65.000;    0.000;3902.95289
 872.69; 3974.969; -100.000;    0.000;4074.96859
 873.25; 3915.984;  -23.000;    0.000;3938.98430
 873.82; 3744.000;  -68.000;    0.000;3812.00000
 874.38; 3889.000;    7.000;    0.000;3882.00000
 874.95; 3869.000;    5.000;    0.000;3864.00000
 875.51; 3923.000;  -13.000;    0.000;3936.00000
 876.08; 3856.000;  -54.000;    0.000;3910.00000
 876.64; 3722.000; -117.000;    0.000;3839.00000
 877.20; 3840.000; -119.000;    0.000;3959.00000
 877.77; 3734.000;  -71.000;    0.000;3805.00000
 878.33; 3705.000;  -69.000;    0.000;3774.00000
 878.90; 3630.000;  -58.000;    0.000;3688.00000
 879.46; 3807.000;  -83.000;    0.000;3890.00000
 880.03; 3900.000;   -3.000;    0.000;3903.00000
 880.59; 3483.000;  -86.000;    0.000;3569.00000
 881.15; 3698.000;   12.000;    0.000;3686.00000
 881.72; 3661.000;  -54.000;    0.000;3715.00000
 882.28; 3679.000;    7.000;    0.000;3672.00000
 882.85; 3650.000;  -88.000;    0.000;3738.00000
 883.41; 3507.000;  -32.000;    0.000;3539.00000
 883.97; 3983.000;  247.000;    0.000;3736.00000
 884.54; 3556.000;  -62.000;    0.000;3618.00000
 885.10; 3561.000;  -57.000;    0.000;3618.00000
 885.66; 3705.000;   -9.000;    0.000;3714.00000
 886.23; 3505.000;  -47.000;    0.000;3552.00000
 886.79; 3477.000;  -62.000;    0.000;3539.00000
 887.36; 3510.000;   10.000;    0.000;3500.00000
 887.92; 3356.000;  -94.000;    0.000;3450.00000
 888.48; 3410.000; -117.000;    0.000;3527.00000
 889.05; 3436.000; -131.000;    0.000;3567.00000
 889.61; 3324.000;  -40.000;    0.000;3364.00000
 890.17; 3365.000;  -54.000;    0.000;3419.00000
 890.74; 3292.000;  -50.000;    0.000;3342.00000
 891.30; 3165.000;  -60.000;    0.000;3225.00000
 891.86; 3290.000;  -58.000;    0.000;3348.00000
 892.43; 3198.000; -119.000;    0.000;3317.00000
 892.99; 3398.000;  -52.000;    0.000;3450.00000
 893.55; 3278.000;  -86.000;    0.000;3364.00000
 894.11; 3294.000;  -55.000;    0.000;3349.00000
 894.68; 3195.000;  -48.000;    0.000;3243.00000
 895.24; 3251.000;   24.000;    0.000;3227.00000
 895.80; 3221.000;  -65.000;    0.000;3286.00000
 896.37; 3203.000;  -58.000;    0.000;3261.00000
 896.93; 3253.000;  -21.000;    0.000;3274.00000
 897.49; 3261.000; -109.000;    0.000;3370.00000
 898.05; 3245.000;  -17.000;    0.000;3262.00000
 898.62; 3354.000;   47.000;    0.000;3307.00000
 899.18; 3199.000;  -86.000;    0.000;3285.00000
 899.74; 3412.000;   63.000;    0.000;3349.00000
 900.31; 3242.000;  -12.000;    0.000;3254.00000
 900.87; 3340.000;  -63.000;    0.000;3403.00000
 901.43; 3329.000; -166.000;    0.000;3495.00000
 901.99; 3343.000;  -66.000;    0.000;3409.00000
 902.56; 3336.000;  -22.000;    0.000;3358.00000
 903.12; 3531.000;   45.000;    0.000;3486.00000
 903.68; 3278.000; -107.000;    0.000;3385.00000
 904.24; 3492.000;  -48.000;    0.000;3540.00000
 904.80; 3469.000;   -6.000;    0.000;3475.00000
 905.37; 3416.000;  -32.000;    0.000;3448.00000
 905.93; 3451.000;  -31.000;    0.000;3482.00000
 906.49; 3439.000;   -2.000;    0.000;3441.00000
 907.05; 3306.000; -107.000;    0.000;3413.00000
 907.61; 3454.000;  -26.000;    0.000;3480.00000
 908.18; 3492.000;   25.000;    0.000;3467.00000
 908.74; 3363.000;  -34.000;    0.000;3397.00000
 909.30; 3397.000;  -94.000;    0.000;3491.00000
 909.86; 3235.000;  -74.000;    0.000;3309.00000
 910.42; 3225.000; -104.000;    0.000;3329.00000
 910.99; 3264.000;   14.000;    0.000;3250.00000
 911.55; 3205.000;  -74.000;    0.000;3279.00000
 912.11; 3266.000;  -46.000;    0.000;3312.00000
 912.67; 3363.000;  -28.000;    0.000;3391.00000
 913.23; 3204.000;  -93.000;    0.000;3297.00000
 913.79; 3214.000;  -38.000;    0.000;3252.00000
 914.36; 3242.000;  -26.000;    0.000;3268.00000
 914.92; 3227.000;  -48.000;    0.000;3275.00000
 915.48; 3097.000;  -69.000;    0.000;3166.00000
 916.04; 3186.000;   66.000;    0.000;3120.00000
 916.60; 3059.000;  -74.000;    0.000;3133.00000
 917.16; 3033.000;  -68.000;    0.000;3101.00000
 917.72; 2949.000;  -81.000;    0.000;3030.00000
 918.28; 2908.000;  -56.000;    0.000;2964.00000
 918.85; 3017.000;    0.000;    0.000;3017.00000
 919.41; 2941.000;  -24.000;    0.000;2965.00000
 919.97; 2782.000;  -99.000;    0.000;2881.00000
 920.53; 3008.000;  -86.000;    0.000;3094.00000
 921.09; 2902.000;   65.000;    0.000;2837.00000
 921.65; 2836.000;  -75.000;    0.000;2911.00000
 922.21; 2904.000;  -79.000;    0.000;2983.00000
 922.77; 2733.000;  -81.000;    0.000;2814.00000
 923.33; 2818.000;  -20.000;    0.000;2838.00000
 923.89; 2737.000;  -51.000;    0.000;2788.00000
 924.45; 2784.000;  -82.000;    0.000;2866.00000
 925.01; 2612.000;  -45.000;    0.000;2657.00000
 925.58; 2754.000;  -31.000;    0.000;2785.00000
 926.14; 2767.000;  -59.000;    0.000;2826.00000
 926.70; 2686.000;  -66.000;    0.000;2752.00000
 927.26; 2780.000;   -8.000;    0.000;2788.00000
 927.82; 2688.000;  -27.000;    0.000;2715.00000
 928.38; 2511.000;  -35.000;    0.000;2546.00000
 928.94; 2583.000;  -46.000;    0.000;2629.00000
 929.50; 2491.000;  -32.000;    0.000;2523.00000
 930.06; 2624.000; -135.000;    0.000;2759.00000
 930.62; 2528.000; -101.000;    0.000;2629.00000
 931.18; 2615.000;    0.000;    0.000;2615.00000
 931.74; 2403.000;  -92.000;    0.000;2495.00000
 932.30; 2501.000;  -83.000;    0.000;2584.00000
 932.86; 2478.000;  -77.000;    0.000;2555.00000
 933.42; 2568.000;  -91.000;    0.000;2659.00000
 933.98; 2341.000;  -53.000;    0.000;2394.00000
 934.54; 2383.000;   -9.000;    0.000;2392.00000
 935.10; 2392.000;  -91.000;    0.000;2483.00000
 935.66; 2189.000;  -69.000;    0.000;2258.00000
 936.22; 2458.000;  -57.000;    0.000;2515.00000
 936.78; 2306.000;  -61.000;    0.000;2367.00000
 937.34; 2381.000;  -46.000;    0.000;2427.00000
 937.90; 2364.000;  -30.000;    0.000;2394.00000
 938.46; 2260.000;  -34.000;    0.000;2294.00000
 939.02; 2369.000;  -45.000;    0.000;2414.00000
 939.58; 2245.000; -130.000;    0.000;2375.00000
 940.14; 2404.000;  -54.000;    0.000;2458.00000
 940.70; 2306.000;   -6.000;    0.000;2312.00000
 941.25; 2248.000;  -90.000;    0.000;2338.00000
 941.81; 2164.000;  -66.000;    0.000;2230.00000
 942.37; 2276.000;  -62.000;    0.000;2338.00000
 942.93; 2076.000; -108.000;    0.000;2184.00000
 943.49; 1975.000;  -64.000;    0.000;2039.00000
 944.05; 1968.000; -102.000;    0.000;2070.00000
 944.61; 2146.000;    8.000;    0.000;2138.00000
 945.17; 1994.000;  -82.000;    0.000;2076.00000
 945.73; 2008.000;  -47.000;    0.000;2055.00000
 946.29; 2127.000;  -75.000;    0.000;2202.00000
 946.85; 1950.000; -114.000;    0.000;2064.00000
 947.40; 1963.000; -121.000;    0.000;2084.00000
 947.96; 2067.000;  -34.000;    0.000;2101.00000
 948.52; 1902.000;  -89.000;    0.000;1991.00000
 949.08; 1985.000;  -52.000;    0.000;2037.00000
 949.64; 1983.000;   26.000;    0.000;1957.00000
 950.20; 1889.000;  -25.000;    0.000;1914.00000
 950.76; 1969.000;  -50.000;    0.000;2019.00000
 951.32; 1975.000;  -83.000;    0.000;2058.00000
 951.87; 1894.000;  -63.000;    0.000;1957.00000
 952.43; 1883.000;   12.000;    0.000;1871.00000
 952.99; 1808.000;    2.000;    0.000;1806.00000
 953.55; 1914.000;  -28.000;    0.000;1942.00000
 954.11; 1795.000; -127.000;    0.000;1922.00000
 954.67; 1929.000;  -56.000;    0.000;1985.00000
 955.22; 1855.000;  -53.000;    0.000;1908.00000
 955.78; 1924.000;   30.000;    0.000;1894.00000
 956.34; 1799.000;  -15.000;    0.000;1814.00000
 956.90; 1909.000;  -80.000;    0.000;1989.00000
 957.46; 1722.000;  -89.000;    0.000;1811.00000
 958.01; 1927.000;   -9.000;    0.000;1936.00000
 958.57; 1826.000;  -72.000;    0.000;1898.00000
 959.13; 1899.000;  -48.000;    0.000;1947.00000
 959.69; 1768.000;  -47.000;    0.000;1815.00000
 960.25; 1855.000;  -71.000;    0.000;1926.00000
 960.80; 1947.000;  -68.000;    0.000;2015.00000
 961.36; 1905.000;  -47.000;    0.000;1952.00000
 961.92; 1819.000; -147.000;    0.000;1966.00000
 962.48; 1824.000;  -90.000;    0.000;1914.00000
 963.03; 1851.000;  -77.000;    0.000;1928.00000
 963.59; 1847.000;  -29.000;    0.000;1876.00000
 964.15; 1908.000;  -99.000;    0.000;2007.00000
 964.71; 1929.000;  -46.000;    0.000;1975.00000
 965.26; 1768.000;  -96.000;    0.000;1864.00000
 965.82; 1931.000;  -53.000;    0.000;1984.00000
 966.38; 1743.000;  -68.000;    0.000;1811.00000
 966.94; 1806.000;  -82.000;    0.000;1888.00000
 967.49; 1718.000;  -82.000;    0.000;1800.00000
 968.05; 1816.000; -143.000;    0.000;1959.00000
 968.61; 1829.000;   56.000;    0.000;1773.00000
 969.17; 1661.000;  -95.000;    0.000;1756.00000
 969.72; 1641.000; -108.000;    0.000;1749.00000
 970.28; 1739.000;  -64.000;    0.000;1803.00000
 970.84; 1728.000;  -91.000;    0.000;1819.00000
 971.39; 1814.000;  -27.000;    0.000;1841.00000
 971.95; 1600.000;  -95.000;    0.000;1695.00000
 972.51; 1550.000; -107.000;    0.000;1657.00000
 973.06; 1691.000;   13.000;    0.000;1678.00000
 973.62; 1766.000;  -18.000;    0.000;1784.00000
 974.18; 1587.000;  -65.000;    0.000;1652.00000
 974.73; 1480.000;  -78.000;    0.000;1558.00000
 975.29; 1753.000;   57.000;    0.000;1696.00000
 975.85; 1651.000;  -36.000;    0.000;1687.00000
 976.40; 1567.000;  -54.000;    0.000;1621.00000
 976.96; 1585.000;  -81.000;    0.000;1666.00000
 977.52; 1692.000;  -24.000;    0.000;1716.00000
 978.07; 1636.000;  -56.000;    0.000;1692.00000
 978.63; 1513.000;  -93.000;    0.000;1606.00000
 979.19; 1585.000;  -22.000;    0.000;1607.00000
 979.74; 1526.000;  -30.000;    0.000;1556.00000
 980.30; 1440.000;  -95.000;    0.000;1535.00000
 980.85; 1548.000;  -17.000;    0.000;1565.00000
 981.41; 1428.000;  -69.000;    0.000;1497.00000
 981.97; 1410.000;  -98.000;    0.000;1508.00000
 982.52; 1425.000; -104.000;    0.000;1529.00000
 983.08; 1406.000;   -1.000;    0.000;1407.00000
 983.63; 1552.000;   13.000;    0.000;1539.00000
 984.19; 1484.000;  -84.000;    0.000;1568.00000
 984.75; 1341.000;  -90.000;    0.000;1431.00000
 985.30; 1354.000; -105.000;    0.000;1459.00000
 985.86; 1461.000;  -75.000;    0.000;1536.00000
 986.41; 1338.000; -131.000;    0.000;1469.00000
 986.97; 1336.000; -119.000;    0.000;1455.00000
 987.52; 1256.000;  -74.000;    0.000;1330.00000
 988.08; 1271.000;  -99.000;    0.000;1370.00000
 988.64; 1388.000; -103.000;    0.000;1491.00000
 989.19; 1271.000; -112.000;    0.000;1383.00000
 989.75; 1320.000;  -19.000;    0.000;1339.00000
 990.30; 1284.000; -110.000;    0.000;1394.00000
 990.86; 1219.000;  -57.000;    0.000;1276.00000
 991.41; 1362.000;  -66.000;    0.000;1428.00000
 991.97; 1221.000;  -57.000;    0.000;1278.00000
 992.52; 1286.000; -112.000;    0.000;1398.00000
 993.08; 1290.000;  -80.000;    0.000;1370.00000
 993.63; 1269.000; -115.000;    0.000;1384.00000
 994.19; 1237.000;  -76.000;    0.000;1313.00000
 994.74; 1118.000; -111.000;    0.000;1229.00000
 995.30; 1109.000; -125.000;    0.000;1234.00000
 995.85; 1169.000; -109.000;    0.000;1278.00000
 996.41; 1142.000;  -47.000;    0.000;1189.00000
 996.96; 1200.000;  -65.000;    0.000;1265.00000
 997.52; 1269.000;   69.000;    0.000;1200.00000
 998.07; 1206.000;  -39.000;    0.000;1245.00000
 998.63; 1156.000; -126.000;    0.000;1282.00000
 999.18; 1125.000;  -20.000;    0.000;1145.00000
 999.74; 1086.000;  -88.000;    0.000;1174.00000
1000.29; 1038.000; -110.000;    0.000;1148.00000
1000.85;  987.000;  -57.000;    0.000;1044.00000
1001.40; 1032.000;  -42.000;    0.000;1074.00000
1001.96;  880.000;  -17.000;    0.000;897.00000
1002.51; 1023.000;  -47.000;    0.000;1070.00000
1003.06;  907.000;  -94.000;    0.000;1001.00000
1003.62; 1053.000;   21.000;    0.000;1032.00000
1004.17;  914.000; -108.000;    0.000;1022.00000
1004.73;  918.000;  -95.000;    0.000;1013.00000
1005.28; 1127.000;   83.000;    0.000;1044.00000
1005.83;  999.000; -104.000;    0.000;1103.00000
1006.39;  852.000; -107.000;    0.000;959.00000
1006.94;  959.000; -103.000;    0.000;1062.00000
1007.50; 1051.000;  -39.000;    0.000;1090.00000
1008.05;  923.000;  -93.000;    0.000;1016.00000
1008.60;  903.000;  -49.000;    0.000;952.00000
1009.16; 1118.000;  -34.000;    0.000;1152.00000
1009.71; 1047.000;  -11.000;    0.000;1058.00000
1010.27;  939.000; -134.000;    0.000;1073.00000
1010.82; 1063.000;  -90.000;    0.000;1153.00000
1011.37; 1063.000;  -17.000;    0.000;1080.00000
1011.93; 1047.000;    2.000;    0.000;1045.00000
1012.48; 1069.000;  -24.000;    0.000;1093.00000
1013.03;  957.000; -102.000;    0.000;1059.00000
1013.59; 1141.000;  -70.000;    0.000;1211.00000
1014.14;  929.000; -116.000;    0.000;1045.00000
1014.69;  939.000;  -80.000;    0.000;1019.00000
1015.25; 1160.000;   81.000;    0.000;1079.00000
1015.80; 1070.000;  -40.000;    0.000;1110.00000
1016.35;  950.000;  -74.000;    0.000;1024.00000
1016.91;  918.000;  -93.000;    0.000;1011.00000
1017.46;  837.000;  -71.000;    0.000;908.00000
1018.01;  950.000; -120.000;    0.000;1070.00000
1018.57;  921.000; -109.000;    0.000;1030.00000
1019.12;  895.000; -100.000;    0.000;995.00000
1019.67;  895.000;  -36.000;    0.000;931.00000
1020.23;  956.000;    0.000;    0.000;956.00000
1020.78;  791.000;  -87.000;    0.000;878.00000
1021.33;  878.000;  -27.000;    0.000;905.00000
1021.88;  883.000;  -39.000;    0.000;922.00000
1022.44;  911.000;   27.000;    0.000;884.00000
1022.99;  690.000;  -95.000;    0.000;785.00000
1023.54;  807.000; -140.000;    0.000;947.00000
1024.09;  923.000;    5.000;    0.000;918.00000
1024.65;  725.000;  -70.000;    0.000;795.00000
1025.20;  717.000;  -86.000;    0.000;803.00000
1025.75;  737.000; -112.000;    0.000;849.00000
1026.30;  695.000;  -23.000;    0.000;718.00000
1026.86;  625.000;  -82.000;    0.000;707.00000
1027.41;  742.000;    6.000;    0.000;736.00000
1027.96;  644.000;  -88.000;    0.000;732.00000
1028.51;  778.000;   27.000;    0.000;751.00000
1029.07;  637.000;  -72.000;    0.000;709.00000
1029.62;  624.000;  -96.000;    0.000;720.00000
1030.17;  623.000;   34.000;    0.000;589.00000
1030.72;  620.000;  -13.000;    0.000;633.00000
1031.27;  633.000;  -29.000;    0.000;662.00000
1031.83;  602.000;  -51.000;    0.000;653.00000
1032.38;  718.000;   -7.000;    0.000;725.00000
1032.93;  631.000;  -64.000;    0.000;695.00000
1033.48;  530.000;  -55.000;    0.000;585.00000
1034.03;  564.000;  -92.000;    0.000;656.00000
1034.58;  519.000;  -52.000;    0.000;571.00000
1035.14;  531.000;  -85.000;    0.000;616.00000
1035.69;  491.000;  -73.000;    0.000;564.00000
1036.24;  475.000; -115.000;    0.000;590.00000
1036.79;  576.000; -119.000;    0.000;695.00000
1037.34;  501.000;  -81.000;    0.000;582.00000
1037.89;  473.000; -129.000;    0.000;602.00000
1038.45;  365.000; -122.000;    0.000;487.00000
1039.00;  499.000;  -28.000;    0.000;527.00000
1039.55;  352.000;  -61.000;    0.000;413.00000
1040.10;  568.000;   11.000;    0.000;557.00000
1040.65;  436.000;  -96.000;    0.000;532.00000
1041.20;  472.000; -102.000;    0.000;574.00000
1041.75;  463.000; -103.000;    0.000;566.00000
1042.30;  422.000; -105.000;    0.000;527.00000
1042.85;  370.000;  -86.000;    0.000;456.00000
1043.41;  478.000;  -33.000;    0.000;511.00000
1043.96;  374.000;  -98.000;    0.000;472.00000
1044.51;  377.000;  -88.000;    0.000;465.00000
1045.06;  405.000;   20.000;    0.000;385.00000
1045.61;  383.000;  -54.000;    0.000;437.00000
1046.16;  425.000;  -38.000;    0.000;463.00000
1046.71;  323.000;  -68.000;    0.000;391.00000
1047.26;  354.000;  -75.000;    0.000;429.00000
1047.81;  316.000; -101.000;    0.000;417.00000
1048.36;  303.000; -128.000;    0.000;431.00000
1048.91; 1216.000;  740.000;    0.000;476.00000
1049.46;  457.000;   71.000;    0.000;386.00000
1050.01;  441.000; -100.000;    0.000;541.00000
1050.56;  330.000; -144.000;    0.000;474.00000
1051.11;  349.000;    5.000;    0.000;344.00000
1051.66;  294.000;  -89.000;    0.000;383.00000
1052.21;  326.000;  -67.000;    0.000;393.00000
1052.76;  340.000;  -79.000;    0.000;419.00000
1053.31;  295.000;  -53.000;    0.000;348.00000
1053.86;  320.000;  -15.000;    0.000;335.00000
1054.41;  337.000;  -45.000;    0.000;382.00000
1054.96;  241.000;  -63.000;    0.000;304.00000
1055.51;  414.000;  140.000;    0.000;274.00000
1056.06;  227.000;  -78.000;    0.000;305.00000
1056.61;  376.000;   66.000;    0.000;310.00000
1057.16;  204.000;  -48.000;    0.000;252.00000
1057.71;  266.000; -120.000;    0.000;386.00000
1058.26;  235.000; -105.000;    0.000;340.00000
1058.81;  317.000;   12.000;    0.000;305.00000
1059.36;  158.000; -114.000;    0.000;272.00000
1059.91;  290.000;  -47.000;    0.000;337.00000
1060.46;  239.000;  -67.000;    0.000;306.00000
1061.01;  185.000; -121.000;    0.000;306.00000
1061.56;  214.000;  -93.000;    0.000;307.00000
1062.11;  325.000;  -24.000;    0.000;349.00000
1062.66;  201.000;  -39.000;    0.000;240.00000
1063.21;  215.000; -140.000;    0.000;355.00000
1063.76;  180.000;  -42.000;    0.000;222.00000
1064.31;  231.000;  -71.000;    0.000;302.00000
1064.86;  198.000;  -97.000;    0.000;295.00000
1065.40;  338.000;   -6.000;    0.000;344.00000
1065.95;  245.000;  -21.000;    0.000;266.00000
1066.50;  170.000; -100.000;    0.000;270.00000
1067.05;  197.000;  -91.000;    0.000;288.00000
1067.60;  193.000;   27.000;    0.000;166.00000
1068.15;  197.000;  -46.000;    0.000;243.00000
1068.70;  150.000;  -75.000;    0.000;225.00000
1069.25;  145.000;  -79.000;    0.000;224.00000
1069.79;  154.000;  -54.000;    0.000;208.00000
1070.34;  208.000; -116.000;    0.000;324.00000
1070.89;  226.000;   -8.000;    0.000;234.00000
1071.44;  163.000;  -61.000;    0.000;224.00000
1071.99;  334.000;   96.000;    0.000;238.00000
1072.54;  129.000;  -88.000;    0.000;217.00000
1073.09;  136.000;  -19.000;    0.000;155.00000
1073.63;  139.000;  -43.000;    0.000;182.00000
1074.18;  165.000;  -17.000;    0.000;182.00000
1074.73;   59.000;  -79.000;    0.000;138.00000
1075.28;  226.000;    1.000;    0.000;225.00000
1075.83;  142.000;  -89.000;    0.000;231.00000
1076.38;   81.000; -122.000;    0.000;203.00000
1076.92;  118.000;  -90.000;    0.000;208.00000
1077.47;  201.000;  -28.000;    0.000;229.00000
1078.02;  157.000;   45.000;    0.000;112.00000
1078.57;   67.000; -107.000;    0.000;174.00000
1079.11;  124.000;  -50.000;    0.000;174.00000
1079.66;   59.000;  -86.000;    0.000;145.00000
1080.21;  100.000;  -73.000;    0.000;173.00000
1080.76;  164.000;  -18.000;    0.000;182.00000
1081.31;   79.000; -103.000;    0.000;182.00000
1081.85;   56.000;  -76.000;    0.000;132.00000
1082.40;  149.000;  -10.000;    0.000;159.00000
1082.95;  156.000; -109.000;    0.000;265.00000
1083.50;  146.000;  -20.000;    0.000;166.00000
1084.04;  141.000;  -68.000;    0.000;209.00000
1084.59;  148.000; -107.000;    0.000;255.00000
1085.14;   72.000; -104.000;    0.000;176.00000
1085.69;   50.000;  -32.000;    0.000;82.00000
1086.23;  115.000;   -9.000;    0.000;124.00000
1086.78;  164.000;  -41.000;    0.000;205.00000
1087.33;  118.000;  -34.000;    0.000;152.00000
1087.87;   76.000;  -93.000;    0.000;169.00000
1088.42;  181.000;  -27.000;    0.000;208.00000
1088.97;   47.000;  -88.000;    0.000;135.00000
1089.52;  128.000;  -75.000;    0.000;203.00000
1090.06;   47.000; -126.000;    0.000;173.00000
1090.61;   94.000;  -45.000;    0.000;139.00000
1091.16;  138.000;  -85.000;    0.000;223.00000
1091.70;  125.000;  -83.000;    0.000;208.00000
1092.25;   84.000;  -79.000;    0.000;163.00000
1092.80;  127.000;  -80.000;    0.000;207.00000
1093.34;   99.000;  -50.000;    0.000;149.00000
1093.89;  107.000;  -51.000;    0.000;158.00000
1094.44;   94.000;  -39.000;    0.000;133.00000
1094.98;  232.000;  -32.000;    0.000;264.00000
1095.53;   85.000;  -67.000;    0.000;152.00000
1096.07;   91.000;  -38.000;    0.000;129.00000
1096.62;   75.000;  -75.000;    0.000;150.00000
1097.17;  109.000;   -4.000;    0.000;113.00000
1097.71;   48.000;  -23.000;    0.000;71.00000
1098.26;   48.000; -132.000;    0.000;180.00000
1098.81;   83.000;  -34.000;    0.000;117.00000
1099.35;   71.000; -102.000;    0.000;173.00000
1099.90;   88.000;  -57.000;    0.000;145.00000
1100.44;   62.000; -172.000;    0.000;234.00000

