
Integration time [ms]: 1000.000
Averaging Nr. [scans]: 1
Smoothing Nr. [pixels]: 0
Data measured with spectrometer [name]: 1701237U1
Wave   ;Sample   ;Dark     ;Reference;Scope Corrected for Dark
[nm]   ;[counts] ;[counts] ;[counts] ;[counts] 

 173.88;  -84.140;  -33.000;    0.000;-51.14026
 174.48;   24.607;  -46.000;    0.000;70.60657
 175.09;  -62.516;  -17.000;    0.000;-45.51627
 175.69;   16.647;    9.000;    0.000; 7.64667
 176.30;   29.780;   12.000;    0.000;17.77954
 176.90;   26.233;  -29.000;    0.000;55.23311
 177.51;   46.534;   -4.000;    0.000;50.53385
 178.11;    5.421;   27.000;    0.000;-21.57888
 178.72; -101.877;  -75.000;    0.000;-26.87716
 179.32;  -93.829;  -41.000;    0.000;-52.82950
 179.93;  -49.744;  -16.000;    0.000;-33.74429
 180.54;    1.504;  -23.000;    0.000;24.50378
 181.14;   -2.170;   46.000;    0.000;-48.17034
 181.75;   55.378;   34.000;    0.000;21.37847
 182.35;    7.549;  -62.000;    0.000;69.54889
 182.96;   49.048;   69.000;    0.000;-19.95234
 183.56;   36.679;  -51.000;    0.000;87.67929
 184.17;  138.727;   90.000;    0.000;48.72687
 184.77;  -52.476;  -12.000;    0.000;-40.47617
 185.38;  -71.424;   -8.000;    0.000;-63.42350
 185.98;   77.506;  -19.000;    0.000;96.50633
 186.59;   15.138;   28.000;    0.000;-12.86212
 187.19;  -67.193;  -46.000;    0.000;-21.19293
 187.80;   55.970;    3.000;    0.000;52.97001
 188.40;   17.932;  -37.000;    0.000;54.93246
 189.01;   26.511;  -12.000;    0.000;38.51134
 189.61;  -62.962;  -25.000;    0.000;-37.96237
 190.21;  -45.045;  -74.000;    0.000;28.95497
 190.82; -116.814;  -22.000;    0.000;-94.81446
 191.42;  -47.316;  -25.000;    0.000;-22.31569
 192.03; -126.441;   25.000;    0.000;-151.44100
 192.63;  -31.747;  -45.000;    0.000;13.25325
 193.24;   14.318;   16.000;    0.000;-1.68168
 193.84;  -74.298;  -50.000;    0.000;-24.29811
 194.45; -106.782;  -26.000;    0.000;-80.78184
 195.05;  -33.824;  -30.000;    0.000;-3.82449
 195.66;   35.434;   -8.000;    0.000;43.43369
 196.26;  -65.403;   23.000;    0.000;-88.40337
 196.87;  -67.997;   18.000;    0.000;-85.99737
 197.47;   29.564;  -52.000;    0.000;81.56401
 198.07;  -81.308; -122.000;    0.000;40.69187
 198.68;  -22.504;  -37.000;    0.000;14.49639
 199.28;    0.950;  -42.000;    0.000;42.94996
 199.89;   19.644;    4.000;    0.000;15.64429
 200.49;  -11.333;    7.000;    0.000;-18.33320
 201.10;   46.399;   16.000;    0.000;30.39860
 201.70;  -22.584;   46.000;    0.000;-68.58381
 202.31; -119.569;  -50.000;    0.000;-69.56886
 202.91;  -29.604;   31.000;    0.000;-60.60394
 203.51;  -30.657;   -5.000;    0.000;-25.65653
 204.12;  -59.371;   15.000;    0.000;-74.37091
 204.72;   56.048;   34.000;    0.000;22.04766
 205.33;  -36.574;  -26.000;    0.000;-10.57387
 205.93;   -7.945;  -11.000;    0.000; 3.05522
 206.53;  -30.170; -100.000;    0.000;69.82966
 207.14;  -61.090;  -51.000;    0.000;-10.09014
 207.74;   -2.985;  -34.000;    0.000;31.01512
 208.35;  -31.456;  -78.000;    0.000;46.54396
 208.95;  -35.060;    3.000;    0.000;-38.06007
 209.55;  243.905;  177.000;    0.000;66.90485
 210.16; -119.451;  -79.000;    0.000;-40.45103
 210.76;  -36.316;   28.000;    0.000;-64.31569
 211.37;  -26.215;  -54.000;    0.000;27.78455
 211.97;  -15.439;  -15.000;    0.000;-0.43854
 212.57;  -28.238;  -33.000;    0.000; 4.76204
 213.18;  -76.601;  -66.000;    0.000;-10.60140
 213.78;  -57.922;  -21.000;    0.000;-36.92219
 214.38;  175.965;  102.000;    0.000;73.96500
 214.99;   34.399;   -9.000;    0.000;43.39860
 215.59;   -1.058;  -53.000;    0.000;51.94248
 216.20;  -62.358;  -78.000;    0.000;15.64174
 216.80;   -2.173;  -39.000;    0.000;36.82720
 217.40;   12.544;    0.000;    0.000;12.54396
 218.01;   21.431;  -13.000;    0.000;34.43122
 218.61;  -81.872;  -50.000;    0.000;-31.87206
 219.21;  -43.075;  -44.000;    0.000; 0.92490
 219.82;  102.815;   59.000;    0.000;43.81463
 220.42;  -94.281;  -77.000;    0.000;-17.28061
 221.02;  -87.205;  -40.000;    0.000;-47.20534
 221.63;  -53.576;  -46.000;    0.000;-7.57625
 222.23;  -61.063;  -91.000;    0.000;29.93747
 222.83;  -65.296;  -45.000;    0.000;-20.29564
 223.44;  -41.574;  -82.000;    0.000;40.42613
 224.04;  -11.626;  -39.000;    0.000;27.37362
 224.64;  -49.443;  -60.000;    0.000;10.55653
 225.25;  -17.246;   14.000;    0.000;-31.24552
 225.85;  -52.779;  -50.000;    0.000;-2.77938
 226.45;  -29.073;  -12.000;    0.000;-17.07256
 227.06;  124.429;   77.000;    0.000;47.42868
 227.66;   42.855;   79.000;    0.000;-36.14527
 228.26;  -55.812;  -12.000;    0.000;-43.81191
 228.87;  -23.862;  -34.000;    0.000;10.13796
 229.47;   48.569;   37.000;    0.000;11.56902
 230.07;   20.973;  -24.000;    0.000;44.97256
 230.68;  -12.388;   88.000;    0.000;-100.38841
 231.28;    4.762;   -7.000;    0.000;11.76204
 231.88;  189.078;  108.000;    0.000;81.07781
 232.48;  -29.624;    8.000;    0.000;-37.62399
 233.09;  -29.870;    7.000;    0.000;-36.86960
 233.69;  -65.356;  -79.000;    0.000;13.64421
 234.29;   43.704;   37.000;    0.000; 6.70436
 234.90;   10.827;   35.000;    0.000;-24.17280
 235.50;  -14.717;  -67.000;    0.000;52.28340
 236.10;  -46.220;  -81.000;    0.000;34.77954
 236.70;  -92.017;   21.000;    0.000;-113.01742
 237.31;  -20.318;  -38.000;    0.000;17.68184
 237.91;  -88.198;    4.000;    0.000;-92.19786
 238.51;  -56.895;  -64.000;    0.000; 7.10534
 239.11;  -88.175;  -52.000;    0.000;-36.17543
 239.72;    0.381;  -64.000;    0.000;64.38110
 240.32;  -63.133;  -82.000;    0.000;18.86721
 240.92;  100.968;   25.000;    0.000;75.96754
 241.53;  -10.604;   21.000;    0.000;-31.60386
 242.13;   45.323;   29.000;    0.000;16.32342
 242.73;   31.815;   13.000;    0.000;18.81463
 243.33;   10.273;  -48.000;    0.000;58.27321
 243.93;    2.787;  -41.000;    0.000;43.78710
 244.54;  -35.431;  -46.000;    0.000;10.56902
 245.14;  -58.657;  -35.000;    0.000;-23.65653
 245.74;   77.897;   44.000;    0.000;33.89737
 246.34;  -86.867;  -11.000;    0.000;-75.86705
 246.95;  -58.353;  -79.000;    0.000;20.64675
 247.55; -100.892;  -76.000;    0.000;-24.89211
 248.15;  -54.050;  -58.000;    0.000; 3.95004
 248.75;   -7.075;   11.000;    0.000;-18.07510
 249.36;  -14.015;  -60.000;    0.000;45.98513
 249.96;  -36.845;  -23.000;    0.000;-13.84454
 250.56;   -1.892;  -15.000;    0.000;13.10789
 251.16;  -79.225;  -40.000;    0.000;-39.22547
 251.76;   27.233;    3.000;    0.000;24.23320
 252.37;   17.045;   35.000;    0.000;-17.95481
 252.97;  -11.657;  -12.000;    0.000; 0.34347
 253.57;  -47.431;  -13.000;    0.000;-34.43098
 254.17;   52.732;   45.000;    0.000; 7.73196
 254.77;  -29.005;    0.000;    0.000;-29.00493
 255.38;  -37.288;  -69.000;    0.000;31.71192
 255.98;  -50.882;   -9.000;    0.000;-41.88217
 256.58;   20.005;   43.000;    0.000;-22.99491
 257.18;  -60.626;  -27.000;    0.000;-33.62646
 257.78;   50.489;  -35.000;    0.000;85.48883
 258.38;  -83.456;  -24.000;    0.000;-59.45604
 258.99;  -78.664;  -47.000;    0.000;-31.66409
 259.59;  -51.235;  -18.000;    0.000;-33.23550
 260.19;  -74.002;  -38.000;    0.000;-36.00238
 260.79;    4.078;   37.000;    0.000;-32.92219
 261.39;  138.722;  113.000;    0.000;25.72194
 261.99;  -53.438;  -51.000;    0.000;-2.43845
 262.60;   12.752;  -68.000;    0.000;80.75201
 263.20;  -34.539; -102.000;    0.000;67.46122
 263.80; -110.436;  -56.000;    0.000;-54.43591
 264.40;  -89.827;  -95.000;    0.000; 5.17305
 265.00;   20.534;   16.000;    0.000; 4.53394
 265.60;  -80.215;  -19.000;    0.000;-61.21545
 266.20;  -41.875;   12.000;    0.000;-53.87461
 266.81;  -49.286;  -17.000;    0.000;-32.28562
 267.41;   23.862;   -8.000;    0.000;31.86228
 268.01;   20.211;   69.000;    0.000;-48.78940
 268.61;  -34.243;  -82.000;    0.000;47.75703
 269.21; -101.373;  -87.000;    0.000;-14.37329
 269.81;  -10.494;   -9.000;    0.000;-1.49367
 270.41;   21.579;   13.000;    0.000; 8.57905
 271.01;    0.038;  -36.000;    0.000;36.03772
 271.62;  -56.669;  -24.000;    0.000;-32.66910
 272.22;   19.075;  -78.000;    0.000;97.07527
 272.82;   43.193;   12.000;    0.000;31.19310
 273.42;   63.278;   18.000;    0.000;45.27831
 274.02;  -26.256;  -53.000;    0.000;26.74445
 274.62;   -6.719;  -69.000;    0.000;62.28085
 275.22;  -86.855;  -62.000;    0.000;-24.85456
 275.82;  -24.193;  -49.000;    0.000;24.80715
 276.42;  -74.118;  -64.000;    0.000;-10.11767
 277.02;   -5.819; -101.000;    0.000;95.18053
 277.63;   -9.952;   52.000;    0.000;-61.95226
 278.23;  -50.932;  -42.000;    0.000;-8.93221
 278.83;  -11.288;    8.000;    0.000;-19.28808
 279.43;   41.822;   63.000;    0.000;-21.17781
 280.03;  -26.977;  -18.000;    0.000;-8.97740
 280.63;   26.283;  -65.000;    0.000;91.28332
 281.23;   35.384;   52.000;    0.000;-16.61643
 281.83;  -71.654;  -33.000;    0.000;-38.65398
 282.43; 2646.263; 2084.000;    0.000;562.26327
 283.03;   30.659;   68.000;    0.000;-37.34076
 283.63;  -61.912;  -34.000;    0.000;-27.91216
 284.23;    9.672;  -37.000;    0.000;46.67182
 284.83;   22.612;   -4.000;    0.000;26.61167
 285.43;   42.629;    1.000;    0.000;41.62917
 286.03;  -68.403;  -55.000;    0.000;-13.40345
 286.63;    4.073;  -42.000;    0.000;46.07280
 287.23;  -97.411;  -76.000;    0.000;-21.41093
 287.84;  -34.975;  -33.000;    0.000;-1.97486
 288.44;  -37.185;  -43.000;    0.000; 5.81463
 289.04;  -62.639;  -58.000;    0.000;-4.63903
 289.64;  -26.160;  -20.000;    0.000;-6.16031
 290.24;  -37.907;   -7.000;    0.000;-30.90707
 290.84;  -98.627;  -64.000;    0.000;-34.62654
 291.44;  -48.539;   26.000;    0.000;-74.53878
 292.04;  -53.012;    0.000;    0.000;-53.01249
 292.64;   58.000;  -17.000;    0.000;75.00008
 293.24;   -7.479;   17.000;    0.000;-24.47864
 293.84;  -46.037; -109.000;    0.000;62.96253
 294.44;   -7.902;  -20.000;    0.000;12.09786
 295.04;   11.985;  -59.000;    0.000;70.98505
 295.64; -113.188;  -60.000;    0.000;-53.18792
 296.24;  -18.238;  -40.000;    0.000;21.76196
 296.84;  -16.639;  -14.000;    0.000;-2.63903
 297.44;  -66.476;  -85.000;    0.000;18.52391
 298.04;  -93.601;  -43.000;    0.000;-50.60148
 298.64;   -9.323;  -65.000;    0.000;55.67675
 299.24;  -54.802;  -15.000;    0.000;-39.80189
 299.84;   47.667;   10.000;    0.000;37.66672
 300.44;    5.890;  -38.000;    0.000;43.88981
 301.04;  -50.822;  -16.000;    0.000;-34.82202
 301.64;  -80.972;  -26.000;    0.000;-54.97231
 302.24;   -0.526;  -62.000;    0.000;61.47379
 302.83;  -13.692;  -40.000;    0.000;26.30830
 303.43;  -52.822;  -30.000;    0.000;-22.82194
 304.03;  -42.524;  -97.000;    0.000;54.47634
 304.63;  -80.824;  -10.000;    0.000;-70.82449
 305.23;  -59.095;  -22.000;    0.000;-37.09515
 305.83;  -32.326; -109.000;    0.000;76.67428
 306.43;  -23.371;  -82.000;    0.000;58.62917
 307.03;    6.123;    7.000;    0.000;-0.87707
 307.63;  -35.301;   12.000;    0.000;-47.30066
 308.23;   53.248;   62.000;    0.000;-8.75177
 308.83;  -89.987;  -12.000;    0.000;-77.98735
 309.43;  -43.749;   -8.000;    0.000;-35.74922
 310.03;  -76.920;  -64.000;    0.000;-12.91964
 310.63;   12.667;  -45.000;    0.000;57.66680
 311.23;  -40.010;    8.000;    0.000;-48.00986
 311.83;    2.589;  -15.000;    0.000;17.58907
 312.43;  -61.654;   13.000;    0.000;-74.65407
 313.02;   50.882;    5.000;    0.000;45.88233
 313.62;  -74.145;  -58.000;    0.000;-16.14527
 314.22;   -4.531;  -13.000;    0.000; 8.46878
 314.82;   -0.198;   61.000;    0.000;-61.19786
 315.42;   10.135;   36.000;    0.000;-25.86450
 316.02; -102.293;   -7.000;    0.000;-95.29310
 316.62;   -8.411;  -24.000;    0.000;15.58915
 317.22;   -4.990;  -92.000;    0.000;87.01019
 317.82;  -73.609;  -50.000;    0.000;-23.60887
 318.42;  382.835;  249.000;    0.000;133.83468
 319.01;  -56.714;  -62.000;    0.000; 5.28587
 319.61;  -82.010;    1.000;    0.000;-83.00986
 320.21;  -33.649;  -35.000;    0.000; 1.35103
 320.81;  -44.143;  -28.000;    0.000;-16.14264
 321.41;   44.674;   44.000;    0.000; 0.67428
 322.01; -107.243;  -88.000;    0.000;-19.24297
 322.61;  -13.666;  -28.000;    0.000;14.33353
 323.21;  -92.890;  -89.000;    0.000;-3.88956
 323.80; -130.724;  -97.000;    0.000;-33.72416
 324.40;  -65.689;  -59.000;    0.000;-6.68899
 325.00;  -54.837; -107.000;    0.000;52.16311
 325.60;   -4.732;  -35.000;    0.000;30.26837
 326.20;  -50.281;  -35.000;    0.000;-15.28053
 326.80;  -43.912; -100.000;    0.000;56.08792
 327.40;   44.060;  -32.000;    0.000;76.06040
 327.99;   13.697;  -29.000;    0.000;42.69704
 328.59;   14.376;  -38.000;    0.000;52.37625
 329.19;  470.584;  305.000;    0.000;165.58431
 329.79;  -37.270;   19.000;    0.000;-56.27034
 330.39;  124.248;   73.000;    0.000;51.24848
 330.99;    6.705;    5.000;    0.000; 1.70460
 331.58;  -52.498;  -52.000;    0.000;-0.49836
 332.18;  -34.611;  -58.000;    0.000;23.38891
 332.78;    9.078;   34.000;    0.000;-24.92185
 333.38;   78.830;   66.000;    0.000;12.83008
 333.98;  -49.408;  -73.000;    0.000;23.59195
 334.57;   -6.979;   -5.000;    0.000;-1.97946
 335.17;  -49.308;  -62.000;    0.000;12.69219
 335.77;  -16.761;   28.000;    0.000;-44.76146
 336.37;  116.096;  122.000;    0.000;-5.90427
 336.97;  -36.814;  -45.000;    0.000; 8.18587
 337.56;  -39.381;  -84.000;    0.000;44.61948
 338.16;   15.091;  -12.000;    0.000;27.09063
 338.76;   49.091;   17.000;    0.000;32.09055
 339.36;  -26.877;  -66.000;    0.000;39.12317
 339.96;   14.569;   26.000;    0.000;-11.43073
 340.55;  -34.315;   11.000;    0.000;-45.31545
 341.15;  -61.461;  -31.000;    0.000;-30.46080
 341.75;  113.341;   58.000;    0.000;55.34125
 342.35; -104.729;  -92.000;    0.000;-12.72892
 342.94;   45.825;   74.000;    0.000;-28.17494
 343.54;  -35.355;    6.000;    0.000;-41.35546
 344.14; -142.546;  -74.000;    0.000;-68.54593
 344.74;  -33.378;   -4.000;    0.000;-29.37798
 345.33;   95.020;   25.000;    0.000;70.02046
 345.93;  -22.939;   -4.000;    0.000;-18.93944
 346.53;   -6.857;  -50.000;    0.000;43.14322
 347.13;  -47.323;  -44.000;    0.000;-3.32292
 347.72;  -25.721;  -39.000;    0.000;13.27864
 348.32;   23.913;  -35.000;    0.000;58.91265
 348.92;   70.321;   17.000;    0.000;53.32120
 349.52;   -0.985;  -58.000;    0.000;57.01545
 350.11;   64.865;   81.000;    0.000;-16.13492
 350.71;  -56.238;  -35.000;    0.000;-21.23771
 351.31;  -11.802;  -22.000;    0.000;10.19836
 351.91;  -20.907;  -95.000;    0.000;74.09310
 352.50;   55.958;  -34.000;    0.000;89.95777
 353.10;  -15.293;   -9.000;    0.000;-6.29285
 353.70;   19.106;  -52.000;    0.000;71.10559
 354.29;  447.587;  362.000;    0.000;85.58685
 354.89;   29.389;  -56.000;    0.000;85.38891
 355.49;  -85.155;  -92.000;    0.000; 6.84495
 356.09;   66.750;   13.000;    0.000;53.74979
 356.68;  -76.982;  -59.000;    0.000;-17.98209
 357.28;  -77.892;  -46.000;    0.000;-31.89178
 357.88;   21.354;  -53.000;    0.000;74.35382
 358.47;  -75.559;  -81.000;    0.000; 5.44150
 359.07;   -5.972;   51.000;    0.000;-56.97206
 359.67;  -37.168;  -42.000;    0.000; 4.83246
 360.26;  -82.303;  -26.000;    0.000;-56.30287
 360.86;   -4.065;   -7.000;    0.000; 2.93525
 361.46;   34.885;    6.000;    0.000;28.88505
 362.05;   63.980;    1.000;    0.000;62.98036
 362.65;  -28.240;  -40.000;    0.000;11.75974
 363.25;  -78.255;  -50.000;    0.000;-28.25530
 363.84; -103.145;   -1.000;    0.000;-102.14503
 364.44;  -56.792;    0.000;    0.000;-56.79162
 365.04;  -53.912;  -21.000;    0.000;-32.91191
 365.63;  -20.656;  -71.000;    0.000;50.34372
 366.23;  -41.095;  -16.000;    0.000;-25.09490
 366.83;  -33.641;  -53.000;    0.000;19.35875
 367.42;  -33.559;  -95.000;    0.000;61.44150
 368.02;  -62.696; -107.000;    0.000;44.30362
 368.62;   10.251;   33.000;    0.000;-22.74897
 369.21;   38.411;    3.000;    0.000;35.41142
 369.81;  254.627;  192.000;    0.000;62.62695
 370.41;  -25.047;  -42.000;    0.000;16.95267
 371.00;  -85.706;  -23.000;    0.000;-62.70633
 371.60;   55.700;  -24.000;    0.000;79.69967
 372.19;   -3.313;  -20.000;    0.000;16.68710
 372.79;  -55.955;  -29.000;    0.000;-26.95456
 373.39;   24.449;    2.000;    0.000;22.44897
 373.98;  -16.744;  -16.000;    0.000;-0.74396
 374.58;  -45.947;   37.000;    0.000;-82.94700
 375.17;  113.707;  -37.000;    0.000;150.70723
 375.77;  120.201;   34.000;    0.000;86.20090
 376.37;  -44.954;  -56.000;    0.000;11.04552
 376.96;   61.221;   -3.000;    0.000;64.22095
 377.56;  111.228;   -8.000;    0.000;119.22843
 378.15;   39.998;  -24.000;    0.000;63.99786
 378.75;   87.156;  -24.000;    0.000;111.15579
 379.35;   61.376;  -23.000;    0.000;84.37634
 379.94;    5.845;  -18.000;    0.000;23.84503
 380.54;   37.459;  -33.000;    0.000;70.45908
 381.13;   -4.864;  -35.000;    0.000;30.13575
 381.73;   10.820;  -63.000;    0.000;73.81989
 382.32;   -7.508;  -68.000;    0.000;60.49154
 382.92;  -31.664;  -78.000;    0.000;46.33624
 383.52;   20.993;  -47.000;    0.000;67.99285
 384.11;  -16.704;   -3.000;    0.000;-13.70386
 384.71;   71.409;    4.000;    0.000;67.40896
 385.30;  145.760;  -25.000;    0.000;170.75982
 385.90;  175.411;   20.000;    0.000;155.41142
 386.49;   72.584;  -25.000;    0.000;97.58439
 387.09;  172.203;   48.000;    0.000;124.20345
 387.68;  -54.238;   13.000;    0.000;-67.23771
 388.28;   10.672; -103.000;    0.000;113.67206
 388.87;  346.960;  171.000;    0.000;175.96023
 389.47;    7.549;  -41.000;    0.000;48.54930
 390.07;  164.341;  -11.000;    0.000;175.34125
 390.66;   77.103;  -38.000;    0.000;115.10312
 391.26;   57.850;  -43.000;    0.000;100.85004
 391.85;    8.221;  -41.000;    0.000;49.22095
 392.45;   41.000;  -16.000;    0.000;57.00041
 393.04;   64.479;   -6.000;    0.000;70.47905
 393.64;  -43.952;  -90.000;    0.000;46.04799
 394.23;   92.426;   -6.000;    0.000;98.42646
 394.83;    6.053;  -38.000;    0.000;44.05300
 395.42;   84.848;    9.000;    0.000;75.84758
 396.02;  158.314;    4.000;    0.000;154.31364
 396.61;   30.299;  -70.000;    0.000;100.29869
 397.21;  103.361;   12.000;    0.000;91.36130
 397.80;12994.612;10838.000;    0.000;2156.61192
 398.40;  156.391;   49.000;    0.000;107.39137
 398.99;  122.441;  -25.000;    0.000;147.44150
 399.59;   86.604;    6.000;    0.000;80.60444
 400.18;  133.572;  -27.000;    0.000;160.57182
 400.78;   84.722;  -36.000;    0.000;120.72219
 401.37;  102.895;  -24.000;    0.000;126.89507
 401.96;   -1.949;  -38.000;    0.000;36.05054
 402.56;   87.717;  -72.000;    0.000;159.71717
 403.15;  108.612;  -21.000;    0.000;129.61192
 403.75;  208.444;   51.000;    0.000;157.44396
 404.34;  160.161;   -3.000;    0.000;163.16081
 404.94;  114.376;  -60.000;    0.000;174.37634
 405.53;  166.920; -133.000;    0.000;299.92021
 406.13;  226.720;  -27.000;    0.000;253.71972
 406.72;  146.670;  -42.000;    0.000;188.66952
 407.32;  139.421;  -46.000;    0.000;185.42145
 407.91;  212.727;  -31.000;    0.000;243.72720
 408.50;  141.246;  -49.000;    0.000;190.24593
 409.10;  179.737;  -61.000;    0.000;240.73722
 409.69;  273.539;   36.000;    0.000;237.53920
 410.29;  128.324;  -50.000;    0.000;178.32367
 410.88;  197.807;  -26.000;    0.000;223.80740
 411.47;  134.404;  -70.000;    0.000;204.40386
 412.07;  192.379;  -45.000;    0.000;237.37880
 412.66;  164.309;  -15.000;    0.000;179.30863
 413.26;  196.780;  -70.000;    0.000;266.77979
 413.85;  185.945;  -76.000;    0.000;261.94519
 414.45;  444.883;  114.000;    0.000;330.88258
 415.04;  142.855;  -72.000;    0.000;214.85497
 415.63;  293.873;   24.000;    0.000;269.87256
 416.23;  251.853;  -50.000;    0.000;301.85251
 416.82;  271.537;  -35.000;    0.000;306.53673
 417.41;  223.381;   -4.000;    0.000;227.38127
 418.01;  305.083;  -43.000;    0.000;348.08307
 418.60;  226.452; -105.000;    0.000;331.45152
 419.20;  250.429;    6.000;    0.000;244.42893
 419.79;  222.935;   -5.000;    0.000;227.93517
 420.38;  267.589;  -41.000;    0.000;308.58932
 420.98;  234.960;  -81.000;    0.000;315.96023
 421.57;  273.253;  -67.000;    0.000;340.25349
 422.16;  272.471;  -32.000;    0.000;304.47149
 422.76;  272.562;  -65.000;    0.000;337.56171
 423.35;  251.644;  -70.000;    0.000;321.64445
 423.94;  526.371;   79.000;    0.000;447.37124
 424.54;  309.762;   -5.000;    0.000;314.76220
 425.13;  470.973;   53.000;    0.000;417.97280
 425.73;  394.086;   14.000;    0.000;380.08554
 426.32;  309.574;  -36.000;    0.000;345.57428
 426.91;  383.852;   -4.000;    0.000;387.85242
 427.51;  480.238;  121.000;    0.000;359.23837
 428.10;  446.502;   51.000;    0.000;395.50156
 428.69;  329.431;  -28.000;    0.000;357.43139
 429.28;  326.023;  -59.000;    0.000;385.02293
 429.88;  397.775;  -39.000;    0.000;436.77477
 430.47;  405.183;   -3.000;    0.000;408.18324
 431.06;  459.482;   15.000;    0.000;444.48151
 431.66;  393.852;  -27.000;    0.000;420.85242
 432.25;  376.492;  -82.000;    0.000;458.49154
 432.84;  354.459;  -63.000;    0.000;417.45892
 433.44;  423.644;   -6.000;    0.000;429.64445
 434.03;  417.399;  -76.000;    0.000;493.39877
 434.62;  553.552;   36.000;    0.000;517.55169
 435.22;  546.552;   40.000;    0.000;506.55160
 435.81;  463.882;   -6.000;    0.000;469.88250
 436.40;  447.750;  -40.000;    0.000;487.74963
 436.99;  482.572;  -61.000;    0.000;543.57173
 437.59;  513.898;  -33.000;    0.000;546.89754
 438.18;  517.584;   -5.000;    0.000;522.58422
 438.77;  397.755; -102.000;    0.000;499.75464
 439.36;  503.637;  -83.000;    0.000;586.63690
 439.96;  617.436;  118.000;    0.000;499.43632
 440.55;  514.173;  -89.000;    0.000;603.17321
 441.14;  577.705;    6.000;    0.000;571.70452
 441.73;  661.599;   80.000;    0.000;581.59934
 442.33;  568.276;   -9.000;    0.000;577.27601
 442.92;  590.131;   76.000;    0.000;514.13057
 443.51;  486.148;   16.000;    0.000;470.14815
 444.10;  672.717;   52.000;    0.000;620.71709
 444.70;  533.206;  -33.000;    0.000;566.20575
 445.29;  544.301;  -23.000;    0.000;567.30107
 445.88;  546.923;   -3.000;    0.000;549.92260
 446.47;  611.221;   41.000;    0.000;570.22079
 447.07;  545.925;  -17.000;    0.000;562.92506
 447.66;  628.717;   63.000;    0.000;565.71709
 448.25;  749.579;   11.000;    0.000;738.57921
 448.84;  584.389;   38.000;    0.000;546.38874
 449.43;  654.058;   -7.000;    0.000;661.05785
 450.03;  717.825;   71.000;    0.000;646.82490
 450.62;  578.552;  -20.000;    0.000;598.55169
 451.21;  646.186;   35.000;    0.000;611.18579
 451.80;  767.489;  118.000;    0.000;649.48899
 452.39;  679.945;  -20.000;    0.000;699.94511
 452.99;  673.451;    6.000;    0.000;667.45136
 453.58;  719.266;   13.000;    0.000;706.26590
 454.17;  670.559;   -8.000;    0.000;678.55908
 454.76;  823.948;   46.000;    0.000;777.94758
 455.35;  843.376;   79.000;    0.000;764.37617
 455.95;  729.509;  -38.000;    0.000;767.50904
 456.54;  689.988;  -59.000;    0.000;748.98768
 457.13;  861.674;    9.000;    0.000;852.67445
 457.72;  794.409;  -46.000;    0.000;840.40871
 458.31;  840.163;  -63.000;    0.000;903.16311
 458.90;  959.925;   84.000;    0.000;875.92506
 459.50;  863.649;  -32.000;    0.000;895.64938
 460.09;  961.228;  -27.000;    0.000;988.22835
 460.68;  880.161;  -60.000;    0.000;940.16064
 461.27;  982.930;  -31.000;    0.000;1013.93008
 461.86; 1025.512;  -21.000;    0.000;1046.51150
 462.45; 1019.552;  -15.000;    0.000;1034.55152
 463.04; 1011.785;  -58.000;    0.000;1069.78472
 463.64; 1100.850;   23.000;    0.000;1077.84980
 464.23; 1131.020;   12.000;    0.000;1119.02030
 464.82; 1050.642;   46.000;    0.000;1004.64182
 465.41; 1052.602;  -64.000;    0.000;1116.60164
 466.00;  923.672;  -58.000;    0.000;981.67190
 466.59; 1079.216;  -69.000;    0.000;1148.21569
 467.18; 1004.724;  -23.000;    0.000;1027.72449
 467.77;  972.993;  -52.000;    0.000;1024.99269
 468.37; 1133.950;  -55.000;    0.000;1188.95012
 468.96; 1180.930;  -18.000;    0.000;1198.93008
 469.55; 1236.562;   10.000;    0.000;1226.56163
 470.14; 1151.005; -112.000;    0.000;1263.00526
 470.73; 1216.414;  -19.000;    0.000;1235.41381
 471.32; 1220.963;  -10.000;    0.000;1230.96261
 471.91; 1133.303;  -58.000;    0.000;1191.30345
 472.50; 1278.218;  -38.000;    0.000;1316.21832
 473.09; 1205.236;  -33.000;    0.000;1238.23574
 473.68; 1381.499;   48.000;    0.000;1333.49901
 474.27; 1258.935;  -48.000;    0.000;1306.93500
 474.86; 1365.737;  -32.000;    0.000;1397.73706
 475.46; 1504.429;  -48.000;    0.000;1552.42876
 476.05; 1542.384;   53.000;    0.000;1489.38365
 476.64; 1305.609;  -33.000;    0.000;1338.60920
 477.23; 1440.993;  -57.000;    0.000;1497.99269
 477.82; 1481.409;  -11.000;    0.000;1492.40871
 478.41; 1440.449;  -55.000;    0.000;1495.44881
 479.00; 1507.013;  -29.000;    0.000;1536.01274
 479.59; 1581.216;  -43.000;    0.000;1624.21578
 480.18; 1512.910;   20.000;    0.000;1492.90994
 480.77; 1642.850;  -90.000;    0.000;1732.84980
 481.36; 1598.885;  -27.000;    0.000;1625.88488
 481.95; 1688.887;  -15.000;    0.000;1703.88743
 482.54; 1773.830;  -65.000;    0.000;1838.82983
 483.13; 1787.772;  -49.000;    0.000;1836.77215
 483.72; 1796.181;  -90.000;    0.000;1886.18061
 484.31; 1879.499;  -68.000;    0.000;1947.49893
 484.90; 2002.659;  -57.000;    0.000;2059.65933
 485.49; 1950.827;  -55.000;    0.000;2005.82720
 486.08; 2011.105;  -68.000;    0.000;2079.10542
 486.67; 2130.481;   30.000;    0.000;2100.48135
 487.26; 2062.386;  -49.000;    0.000;2111.38611
 487.85; 2201.584;  -51.000;    0.000;2252.58414
 488.44; 2083.787;  -63.000;    0.000;2146.78718
 489.03; 2367.940;  -15.000;    0.000;2382.94002
 489.62; 2101.446;  -58.000;    0.000;2159.44626
 490.21; 2378.815; -101.000;    0.000;2479.81471
 490.80; 2413.341;   31.000;    0.000;2382.34100
 491.39; 2410.800;  -76.000;    0.000;2486.79967
 491.98; 2486.186;   43.000;    0.000;2443.18562
 492.57; 2386.063;   66.000;    0.000;2320.06278
 493.16; 2419.173;  -30.000;    0.000;2449.17313
 493.75; 2518.263;  -45.000;    0.000;2563.26335
 494.34; 2655.569;   11.000;    0.000;2644.56911
 494.93; 2511.722;  -35.000;    0.000;2546.72194
 495.52; 2578.168;  -56.000;    0.000;2634.16812
 496.11; 2569.339;  -64.000;    0.000;2633.33854
 496.70; 2596.100;  -16.000;    0.000;2612.10049
 497.29; 2727.454;  -15.000;    0.000;2742.45382
 497.88; 2585.860;   11.000;    0.000;2574.85982
 498.47; 2793.975;   47.000;    0.000;2746.97510
 499.06; 2786.188;   57.000;    0.000;2729.18817
 499.64; 2601.161;   -9.000;    0.000;2610.16056
 500.23; 2779.534;   33.000;    0.000;2746.53402
 500.82; 2704.699;  -15.000;    0.000;2719.69943
 501.41; 2841.752;   66.000;    0.000;2775.75210
 502.00; 2813.243;  -28.000;    0.000;2841.24330
 502.59; 2878.815;   24.000;    0.000;2854.81471
 503.18; 2817.624;  -20.000;    0.000;2837.62424
 503.77; 2840.644;   41.000;    0.000;2799.64429
 504.36; 2945.905;    2.000;    0.000;2943.90493
 504.95; 2860.745;  -17.000;    0.000;2877.74454
 505.54; 2899.489;   31.000;    0.000;2868.48891
 506.12; 2962.659;  195.000;    0.000;2767.65933
 506.71; 2936.669;   38.000;    0.000;2898.66935
 507.30; 2907.532;  104.000;    0.000;2803.53155
 507.89; 2949.562;   31.000;    0.000;2918.56163
 508.48; 3000.050;   76.000;    0.000;2924.05029
 509.07; 2972.045;   53.000;    0.000;2919.04536
 509.66; 3073.171;   94.000;    0.000;2979.17058
 510.25; 3137.642;   33.000;    0.000;3104.64182
 510.84; 3187.213;   78.000;    0.000;3109.21323
 511.42; 3099.609;   15.000;    0.000;3084.60920
 512.01; 3292.724;  199.000;    0.000;3093.72440
 512.60; 3230.308;  102.000;    0.000;3128.30846
 513.19; 3153.173;  133.000;    0.000;3020.17313
 513.78; 3256.958;  122.000;    0.000;3134.95760
 514.37; 3310.191;  162.000;    0.000;3148.19063
 514.95; 3330.902;  123.000;    0.000;3207.90238
 515.54; 3337.850;  118.000;    0.000;3219.84980
 516.13; 3352.308;  102.000;    0.000;3250.30846
 516.72; 3291.075;  180.000;    0.000;3111.07535
 517.31; 3449.171;  170.000;    0.000;3279.17058
 517.90; 3315.396;   74.000;    0.000;3241.39614
 518.48; 3440.995;  128.000;    0.000;3312.99515
 519.07; 3412.068;  176.000;    0.000;3236.06787
 519.66; 3620.637;  219.000;    0.000;3401.63673
 520.25; 3441.341;  104.000;    0.000;3337.34100
 520.84; 3607.574;  170.000;    0.000;3437.57412
 521.43; 3685.506;  191.000;    0.000;3494.50641
 522.01; 3811.436;  269.000;    0.000;3542.43624
 522.60; 3749.900;  202.000;    0.000;3547.89992
 523.19; 3659.115;  165.000;    0.000;3494.11545
 523.78; 3685.529;  220.000;    0.000;3465.52901
 524.37; 3859.978;  153.000;    0.000;3706.97765
 524.95; 3764.702;  181.000;    0.000;3583.70189
 525.54; 3862.494;  152.000;    0.000;3710.49392
 526.13; 3833.760;  141.000;    0.000;3692.75957
 526.72; 3942.444;  151.000;    0.000;3791.44371
 527.30; 3965.526;  121.000;    0.000;3844.52646
 527.89; 3967.434;  108.000;    0.000;3859.43377
 528.48; 3936.677;  133.000;    0.000;3803.67683
 529.07; 4086.629;  124.000;    0.000;3962.62925
 529.65; 4153.993;  240.000;    0.000;3913.99261
 530.24; 3978.599;  140.000;    0.000;3838.59918
 530.83; 4106.842;   69.000;    0.000;4037.84224
 531.42; 4258.491;  184.000;    0.000;4074.49137
 532.00; 4252.005;  159.000;    0.000;4093.00518
 532.59; 4148.364;  153.000;    0.000;3995.36352
 533.18; 4265.303;  113.000;    0.000;4152.30337
 533.77; 4484.855;  206.000;    0.000;4278.85481
 534.35; 4185.416;  155.000;    0.000;4030.41619
 534.94; 4302.516;   77.000;    0.000;4225.51643
 535.53; 4299.474;  109.000;    0.000;4190.47379
 536.12; 4353.409;   68.000;    0.000;4285.40871
 536.70; 4330.664;   98.000;    0.000;4232.66426
 537.29; 4123.922;   71.000;    0.000;4052.92243
 537.88; 4447.953;  103.000;    0.000;4344.95251
 538.46; 4217.226;   40.000;    0.000;4177.22572
 539.05; 4164.008;   43.000;    0.000;4121.00764
 539.64; 4250.574;   68.000;    0.000;4182.57403
 540.23; 4286.617;  108.000;    0.000;4178.61668
 540.81; 4323.288;  163.000;    0.000;4160.28833
 541.40; 4300.609;   45.000;    0.000;4255.60920
 541.99; 4286.617;   -1.000;    0.000;4287.61668
 542.57; 4241.942;   49.000;    0.000;4192.94248
 543.16; 4143.075;   39.000;    0.000;4104.07535
 543.75; 4386.990;   56.000;    0.000;4330.99006
 544.33; 4307.892;   44.000;    0.000;4263.89236
 544.92; 4392.915;   90.000;    0.000;4302.91487
 545.51; 4357.742;   86.000;    0.000;4271.74199
 546.09; 4402.156;  104.000;    0.000;4298.15555
 546.68; 4461.291;  103.000;    0.000;4358.29088
 547.27; 4407.554;   33.000;    0.000;4374.55399
 547.85; 4459.238;   42.000;    0.000;4417.23821
 548.44; 4560.674;  -18.000;    0.000;4578.67428
 549.03; 4564.800;   41.000;    0.000;4523.79959
 549.61; 4479.171;    8.000;    0.000;4471.17058
 550.20; 4554.333;   40.000;    0.000;4514.33344
 550.78; 4713.697;   70.000;    0.000;4643.69688
 551.37; 4718.622;   74.000;    0.000;4644.62161
 551.96; 4713.895;   59.000;    0.000;4654.89482
 552.54; 4781.288;   13.000;    0.000;4768.28841
 553.13; 4699.366;  -15.000;    0.000;4714.36606
 553.72; 4845.922;   -2.000;    0.000;4847.92243
 554.30; 5110.541;   56.000;    0.000;5054.54141
 554.89; 4974.456;  -13.000;    0.000;4987.45620
 555.47; 5080.293;   17.000;    0.000;5063.29334
 556.06; 5058.557;   76.000;    0.000;4982.55653
 556.65; 5092.138;   68.000;    0.000;5024.13796
 557.23; 5099.003;   47.000;    0.000;5052.00263
 557.82; 5177.785;   10.000;    0.000;5167.78455
 558.40; 5209.278;  -50.000;    0.000;5259.27831
 558.99; 5096.379;    5.000;    0.000;5091.37864
 559.58; 5186.361;   61.000;    0.000;5125.36105
 560.16; 5302.494;  -38.000;    0.000;5340.49392
 560.75; 5348.080;   34.000;    0.000;5314.08036
 561.33; 5387.248;   86.000;    0.000;5301.24823
 561.92; 5189.316;    2.000;    0.000;5187.31594
 562.50; 5366.494;   27.000;    0.000;5339.49384
 563.09; 5330.973;  -14.000;    0.000;5344.97256
 563.68; 5479.188;   -4.000;    0.000;5483.18809
 564.26; 5583.707;   14.000;    0.000;5569.70690
 564.85; 5694.028;   10.000;    0.000;5684.02769
 565.43; 5611.617;   -1.000;    0.000;5612.61668
 566.02; 5615.827;   -6.000;    0.000;5621.82720
 566.60; 5698.624;  -17.000;    0.000;5715.62416
 567.19; 5514.592;  -22.000;    0.000;5536.59162
 567.77; 5709.321;   -8.000;    0.000;5717.32087
 568.36; 5772.030;   18.000;    0.000;5754.03016
 568.94; 5723.414;  -28.000;    0.000;5751.41364
 569.53; 5864.213;   12.000;    0.000;5852.21315
 570.11; 5755.446;   -8.000;    0.000;5763.44618
 570.70; 5739.424;  -41.000;    0.000;5780.42367
 571.28; 5802.750;  -30.000;    0.000;5832.74955
 571.87; 5757.441;  -55.000;    0.000;5812.44117
 572.45; 5903.775;   23.000;    0.000;5880.77453
 573.04; 5843.055;  -31.000;    0.000;5874.05530
 573.62; 6038.484;  -35.000;    0.000;6073.48381
 574.21; 6145.183;   84.000;    0.000;6061.18307
 574.79; 5989.549;   12.000;    0.000;5977.54906
 575.38; 6050.439;  -88.000;    0.000;6138.43870
 575.96; 5986.381;  -28.000;    0.000;6014.38102
 576.55; 6044.860;  -45.000;    0.000;6089.85974
 577.13; 6152.241;   15.000;    0.000;6137.24067
 577.72; 6080.654;  -31.000;    0.000;6111.65423
 578.30; 6141.792;  -37.000;    0.000;6178.79211
 578.89; 6046.521;  -59.000;    0.000;6105.52136
 579.47; 6180.897;  -15.000;    0.000;6195.89737
 580.06; 6133.241;   58.000;    0.000;6075.24076
 580.64; 6069.514;   -2.000;    0.000;6071.51389
 581.23; 6280.484;  -42.000;    0.000;6322.48381
 581.81; 6340.993;  142.000;    0.000;6198.99261
 582.39; 6165.594;  -47.000;    0.000;6212.59408
 582.98; 6239.206;  -50.000;    0.000;6289.20567
 583.56; 6375.865;   -2.000;    0.000;6377.86483
 584.15; 6252.752;   10.000;    0.000;6242.75201
 584.73; 6309.970;   12.000;    0.000;6297.97009
 585.32; 6184.782;   18.000;    0.000;6166.78209
 585.90; 6356.020;  154.000;    0.000;6202.02021
 586.48; 6191.168;  -22.000;    0.000;6213.16804
 587.07; 6311.288;  -12.000;    0.000;6323.28833
 587.65; 6322.268;   31.000;    0.000;6291.26828
 588.24; 6229.564;  -42.000;    0.000;6271.56401
 588.82; 6125.369;  -40.000;    0.000;6165.36853
 589.41; 7654.765; 1798.000;    0.000;5856.76450
 589.99; 6259.562;  -29.000;    0.000;6288.56155
 590.57; 6009.216;  -60.000;    0.000;6069.21561
 591.16; 6554.426;   94.000;    0.000;6460.42621
 591.74; 6371.439;   29.000;    0.000;6342.43870
 592.32; 6204.860;   18.000;    0.000;6186.85974
 592.91; 6400.336;   14.000;    0.000;6386.33599
 593.49; 6373.920;  -59.000;    0.000;6432.91989
 594.08; 6359.662;  -36.000;    0.000;6395.66179
 594.66; 6258.825;  -12.000;    0.000;6270.82465
 595.24; 6330.000;   -2.000;    0.000;6332.00008
 595.83; 6221.048;  -48.000;    0.000;6269.04774
 596.41; 6170.767;  -11.000;    0.000;6181.76697
 596.99; 6246.045;   49.000;    0.000;6197.04519
 597.58; 6282.724;   -5.000;    0.000;6287.72440
 598.16; 6259.965;   60.000;    0.000;6199.96508
 598.74; 6333.569;   41.000;    0.000;6292.56902
 599.33; 6312.877;  -18.000;    0.000;6330.87732
 599.91; 6302.652;  -61.000;    0.000;6363.65177
 600.49; 6521.296;  -31.000;    0.000;6552.29589
 601.08; 6223.925;   73.000;    0.000;6150.92490
 601.66; 6239.825;  -16.000;    0.000;6255.82465
 602.24; 6374.176; -102.000;    0.000;6476.17551
 602.83; 6393.095;  -55.000;    0.000;6448.09532
 603.41; 6232.875;  -11.000;    0.000;6243.87477
 603.99; 6429.782;  -52.000;    0.000;6481.78217
 604.58; 6406.534;  -11.000;    0.000;6417.53394
 605.16; 6464.978;  -26.000;    0.000;6490.97757
 605.74; 6359.439;  -59.000;    0.000;6418.43870
 606.33; 6423.704;  -34.000;    0.000;6457.70436
 606.91; 6528.602;  -21.000;    0.000;6549.60164
 607.49; 6529.958;  -58.000;    0.000;6587.95752
 608.07; 6653.970;  -48.000;    0.000;6701.97001
 608.66; 6560.699;  -68.000;    0.000;6628.69934
 609.24; 6406.810;   16.000;    0.000;6390.80961
 609.82; 6557.208;  -69.000;    0.000;6626.20814
 610.41; 6366.293;  -58.000;    0.000;6424.29334
 610.99; 6273.609;  -97.000;    0.000;6370.60912
 611.57; 6342.496;  -33.000;    0.000;6375.49630
 612.15; 6270.298;   15.000;    0.000;6255.29836
 612.74; 6384.516;   74.000;    0.000;6310.51635
 613.32; 6126.404;  -30.000;    0.000;6156.40362
 613.90; 6115.724;   42.000;    0.000;6073.72440
 614.48; 6013.043;   -3.000;    0.000;6016.04273
 615.07; 6021.030;  -48.000;    0.000;6069.03024
 615.65; 5727.867;  -30.000;    0.000;5757.86721
 616.23; 5854.419;  -48.000;    0.000;5902.41865
 616.81; 5758.534;  -18.000;    0.000;5776.53402
 617.40; 5708.471;  -13.000;    0.000;5721.47141
 617.98; 6004.489;   -7.000;    0.000;6011.48899
 618.56; 6492.895;    0.000;    0.000;6492.89491
 619.14; 6634.238;  -47.000;    0.000;6681.23829
 619.72; 6599.298;  -76.000;    0.000;6675.29844
 620.31; 6739.351;    9.000;    0.000;6730.35103
 620.89; 6838.963;   -9.000;    0.000;6847.96253
 621.47; 6759.767;  -51.000;    0.000;6810.76705
 622.05; 6832.998;  -29.000;    0.000;6861.99762
 622.63; 6852.201;  -33.000;    0.000;6885.20066
 623.22; 6792.075;  -65.000;    0.000;6857.07527
 623.80; 6753.020;    7.000;    0.000;6746.02021
 624.38; 7109.364;   71.000;    0.000;7038.36352
 624.96; 7120.206;  -75.000;    0.000;7195.20567
 625.54; 6878.501;  -66.000;    0.000;6944.50140
 626.13; 6922.875;  -17.000;    0.000;6939.87477
 626.71; 7395.932;  218.000;    0.000;7177.93246
 627.29; 6896.988;  -33.000;    0.000;6929.98768
 627.87; 6856.827;  -49.000;    0.000;6905.82720
 628.45; 6971.963;  -64.000;    0.000;7035.96253
 629.03; 7077.521;   18.000;    0.000;7059.52145
 629.62; 6758.406;  -58.000;    0.000;6816.40616
 630.20; 7067.562; -100.000;    0.000;7167.56155
 630.78; 6723.243;  -39.000;    0.000;6762.24322
 631.36; 6913.845;  -65.000;    0.000;6978.84478
 631.94; 6794.379;  -40.000;    0.000;6834.37855
 632.52; 6892.754;  -14.000;    0.000;6906.75448
 633.10; 6993.865;  -27.000;    0.000;7020.86483
 633.68; 6837.176;  -43.000;    0.000;6880.17560
 634.27; 6847.456;  -35.000;    0.000;6882.45629
 634.85; 6879.030;  -31.000;    0.000;6910.03024
 635.43; 6820.837; -126.000;    0.000;6946.83731
 636.01; 6925.973;  -31.000;    0.000;6956.97256
 636.59; 6729.697;  -66.000;    0.000;6795.69688
 637.17; 7082.090;  -57.000;    0.000;7139.09047
 637.75; 6861.714;  -68.000;    0.000;6929.71446
 638.33; 7006.584;  -62.000;    0.000;7068.58414
 638.91; 6900.990;  -34.000;    0.000;6934.99014
 639.50; 6841.677;  -40.000;    0.000;6881.67691
 640.08; 6708.285;  -83.000;    0.000;6791.28455
 640.66; 6625.294;  -41.000;    0.000;6666.29365
 641.24; 6784.303;   46.000;    0.000;6738.30276
 641.82; 6715.312;   10.000;    0.000;6705.31187
 642.40; 6654.321;  -41.000;    0.000;6695.32097
 642.98; 6680.330;  -95.000;    0.000;6775.33008
 643.56; 6563.339;  -25.000;    0.000;6588.33919
 644.14; 6588.348;  -68.000;    0.000;6656.34829
 644.72; 6570.357;   -4.000;    0.000;6574.35740
 645.30; 6669.367;  -28.000;    0.000;6697.36651
 645.88; 6572.376;  -24.000;    0.000;6596.37561
 646.46; 6680.385;  -24.000;    0.000;6704.38472
 647.04; 6524.394;  -61.000;    0.000;6585.39383
 647.62; 6565.403;   47.000;    0.000;6518.40293
 648.20; 6651.412;    1.000;    0.000;6650.41204
 648.78; 6338.421;   11.000;    0.000;6327.42115
 649.36; 6490.430;  -47.000;    0.000;6537.43025
 649.94; 6558.439; -112.000;    0.000;6670.43936
 650.52; 6439.448;  -65.000;    0.000;6504.44847
 651.11; 6442.458;  -47.000;    0.000;6489.45757
 651.69; 6485.467;  -41.000;    0.000;6526.46668
 652.27; 6545.476;  -11.000;    0.000;6556.47578
 652.85; 6407.485;  -45.000;    0.000;6452.48489
 653.43; 6308.494;  -24.000;    0.000;6332.49400
 654.01; 6287.503;  -58.000;    0.000;6345.50310
 654.59; 6295.512;  -52.000;    0.000;6347.51221
 655.17; 6287.521;  -14.000;    0.000;6301.52132
 655.74; 6472.530;  -58.000;    0.000;6530.53042
 656.32; 6440.540;  -67.000;    0.000;6507.53953
 656.90; 6562.549;  -24.000;    0.000;6586.54864
 657.48; 6814.558;   67.000;    0.000;6747.55774
 658.06; 6654.567;  -68.000;    0.000;6722.56685
 658.64; 6792.576;  -44.000;    0.000;6836.57596
 659.22; 6798.585;  -19.000;    0.000;6817.58506
 659.80; 7009.594;  -57.000;    0.000;7066.59417
 660.38; 6909.603; -114.000;    0.000;7023.60328
 660.96; 7031.612; -123.000;    0.000;7154.61238
 661.54; 7086.621;  -45.000;    0.000;7131.62149
 662.12; 7119.631;  -68.000;    0.000;7187.63060
 662.70; 7189.640;  -94.000;    0.000;7283.63970
 663.28; 6865.649; -106.000;    0.000;6971.64881
 663.86; 6572.658;   -5.000;    0.000;6577.65791
 664.44; 6415.667;  -65.000;    0.000;6480.66702
 665.02; 6402.676;  -11.000;    0.000;6413.67613
 665.60; 6357.685;  -20.000;    0.000;6377.68523
 666.18; 6309.694;  -24.000;    0.000;6333.69434
 666.75; 6602.703;   73.000;    0.000;6529.70345
 667.33; 6412.713;  -44.000;    0.000;6456.71255
 667.91; 6619.722;  134.000;    0.000;6485.72166
 668.49; 6379.731;   21.000;    0.000;6358.73077
 669.07; 6243.740;  -27.000;    0.000;6270.73987
 669.65; 6321.749;  -49.000;    0.000;6370.74898
 670.23; 6250.758;  -75.000;    0.000;6325.75809
 670.81; 6194.767;  -18.000;    0.000;6212.76719
 671.39; 6410.776; -128.000;    0.000;6538.77630
 671.97; 6344.785;  -47.000;    0.000;6391.78541
 672.54; 6467.795;   11.000;    0.000;6456.79451
 673.12; 6381.804;   -1.000;    0.000;6382.80362
 673.70; 6317.813;  -22.000;    0.000;6339.81273
 674.28; 6495.822;   19.000;    0.000;6476.82183
 674.86; 6486.831;  -70.000;    0.000;6556.83094
 675.44; 6514.840;  -36.000;    0.000;6550.84004
 676.02; 6491.849;    3.000;    0.000;6488.84915
 676.59; 6687.858;   34.000;    0.000;6653.85826
 677.17; 6506.867;    1.000;    0.000;6505.86736
 677.75; 6451.876;  -62.000;    0.000;6513.87647
 678.33; 6285.886;  -83.000;    0.000;6368.88558
 678.91; 6478.895;  -44.000;    0.000;6522.89468
 679.49; 6404.904;  -14.000;    0.000;6418.90379
 680.06; 6637.913;  -71.000;    0.000;6708.91290
 680.64; 6514.922;  -38.000;    0.000;6552.92200
 681.22; 6661.931;  -21.000;    0.000;6682.93111
 681.80; 6627.940;  -83.000;    0.000;6710.94022
 682.38; 6654.949;  -44.000;    0.000;6698.94932
 682.96; 6645.958;  -10.000;    0.000;6655.95843
 683.53; 6681.968;   12.000;    0.000;6669.96754
 684.11; 6759.977;    9.000;    0.000;6750.97664
 684.69; 6646.986; -121.000;    0.000;6767.98575
 685.27; 6757.995;   29.000;    0.000;6728.99486
 685.85; 6652.004;  -30.000;    0.000;6682.00396
 686.42; 6586.013;  -51.000;    0.000;6637.01307
 687.00; 6669.022;  -37.000;    0.000;6706.02217
 687.58; 6592.031;  -45.000;    0.000;6637.03128
 688.16; 6456.040;  -65.000;    0.000;6521.04039
 688.73; 6657.049;  -66.000;    0.000;6723.04949
 689.31; 6506.059;  -23.000;    0.000;6529.05860
 689.89; 6593.068;  -35.000;    0.000;6628.06771
 690.47; 6717.077;   34.000;    0.000;6683.07681
 691.04; 6487.086;  -65.000;    0.000;6552.08592
 691.62; 6373.095;  -42.000;    0.000;6415.09503
 692.20; 6360.104;  -92.000;    0.000;6452.10413
 692.78; 6409.113;  -33.000;    0.000;6442.11324
 693.35; 6349.122;   -6.000;    0.000;6355.12235
 693.93; 6286.131;  -44.000;    0.000;6330.13145
 694.51; 6283.141;  -94.000;    0.000;6377.14056
 695.09; 6253.150;  -77.000;    0.000;6330.14967
 695.66; 6233.159;  -89.000;    0.000;6322.15877
 696.24; 6139.168; -118.000;    0.000;6257.16788
 696.82; 6182.177; -107.000;    0.000;6289.17699
 697.39; 6212.186;  -92.000;    0.000;6304.18609
 697.97; 6209.195;  -15.000;    0.000;6224.19520
 698.55; 5953.204;  -44.000;    0.000;5997.20430
 699.13; 5916.213;  -84.000;    0.000;6000.21341
 699.70; 5846.223;  -95.000;    0.000;5941.22252
 700.28; 5905.232;  -67.000;    0.000;5972.23162
 700.86; 5871.241;  -75.000;    0.000;5946.24073
 701.43; 5837.250;  -49.000;    0.000;5886.24984
 702.01; 5771.259;  -51.000;    0.000;5822.25894
 702.59; 5672.268;  -48.000;    0.000;5720.26805
 703.16; 5597.277; -107.000;    0.000;5704.27716
 703.74; 5644.286;  -48.000;    0.000;5692.28626
 704.32; 5649.295;    4.000;    0.000;5645.29537
 704.89; 5524.304;  -66.000;    0.000;5590.30448
 705.47; 5511.314;  -85.000;    0.000;5596.31358
 706.05; 5557.323;  -48.000;    0.000;5605.32269
 706.62; 5407.332;  -59.000;    0.000;5466.33180
 707.20; 5415.341;  -85.000;    0.000;5500.34090
 707.78; 5445.350;  -60.000;    0.000;5505.35001
 708.35; 5382.359; -109.000;    0.000;5491.35912
 708.93; 5441.368;  -43.000;    0.000;5484.36822
 709.51; 5458.377;  -88.000;    0.000;5546.37733
 710.08; 5380.386;  -96.000;    0.000;5476.38643
 710.66; 5247.396;  -57.000;    0.000;5304.39554
 711.23; 5314.405;  -30.000;    0.000;5344.40465
 711.81; 5285.414;  -84.000;    0.000;5369.41375
 712.39; 5278.423;  -49.000;    0.000;5327.42286
 712.96; 5425.432;  -95.000;    0.000;5520.43197
 713.54; 5214.441;  -40.000;    0.000;5254.44107
 714.11; 5154.450;  -44.000;    0.000;5198.45018
 714.69; 5051.459;  -69.000;    0.000;5120.45929
 715.27; 5246.468;  -65.000;    0.000;5311.46839
 715.84; 5045.477;  -19.000;    0.000;5064.47750
 716.42; 5070.487;  -53.000;    0.000;5123.48661
 716.99; 5096.496; -111.000;    0.000;5207.49571
 717.57; 5120.505;  -43.000;    0.000;5163.50482
 718.15; 4826.514; -102.000;    0.000;4928.51393
 718.72; 4993.523;  -48.000;    0.000;5041.52303
 719.30; 4826.532; -118.000;    0.000;4944.53214
 719.87; 4881.541;  -42.000;    0.000;4923.54125
 720.45; 4853.550; -107.000;    0.000;4960.55035
 721.02; 5056.559;  -88.000;    0.000;5144.55946
 721.60; 4799.569;  -75.000;    0.000;4874.56856
 722.17; 4810.578;  -60.000;    0.000;4870.57767
 722.75; 4911.587;  -92.000;    0.000;5003.58678
 723.33; 4839.596; -104.000;    0.000;4943.59588
 723.90; 4893.605;   19.000;    0.000;4874.60499
 724.48; 4904.614;  -80.000;    0.000;4984.61410
 725.05; 4808.623;  -81.000;    0.000;4889.62320
 725.63; 4882.632;  -69.000;    0.000;4951.63231
 726.20; 4838.641;  -27.000;    0.000;4865.64142
 726.78; 4857.651;  -79.000;    0.000;4936.65052
 727.35; 4727.660;   17.000;    0.000;4710.65963
 727.93; 4841.669;  -73.000;    0.000;4914.66874
 728.50; 4826.678;   32.000;    0.000;4794.67784
 729.08; 4684.687;  -54.000;    0.000;4738.68695
 729.65; 4895.696;   73.000;    0.000;4822.69606
 730.23; 4668.705;  -78.000;    0.000;4746.70516
 730.80; 4477.714;  -70.000;    0.000;4547.71427
 731.38; 4844.723;  -73.000;    0.000;4917.72338
 731.95; 4843.732;   36.000;    0.000;4807.73248
 732.53; 4746.742; -116.000;    0.000;4862.74159
 733.10; 4653.751;  -20.000;    0.000;4673.75069
 733.68; 4727.760;  -58.000;    0.000;4785.75980
 734.25; 4783.769;  -38.000;    0.000;4821.76891
 734.82; 4630.778;  -49.000;    0.000;4679.77801
 735.40; 4670.787;  -67.000;    0.000;4737.78712
 735.97; 4793.796;  -49.000;    0.000;4842.79623
 736.55; 4734.805;  -10.000;    0.000;4744.80533
 737.12; 4626.814;  -56.000;    0.000;4682.81444
 737.70; 4606.824; -118.000;    0.000;4724.82355
 738.27; 4634.833;   -2.000;    0.000;4636.83265
 738.85; 4635.842;  -80.000;    0.000;4715.84176
 739.42; 4608.851;  -32.000;    0.000;4640.85087
 739.99; 4640.860;  -75.000;    0.000;4715.85997
 740.57; 4614.869;  -96.000;    0.000;4710.86908
 741.14; 4530.878;   -6.000;    0.000;4536.87819
 741.72; 4754.887;  -79.000;    0.000;4833.88729
 742.29; 4523.896;  -83.000;    0.000;4606.89640
 742.87; 4567.906;  -34.000;    0.000;4601.90551
 743.44; 4588.915;  -55.000;    0.000;4643.91461
 744.01; 4462.924;  -52.000;    0.000;4514.92372
 744.59; 4550.933;  -49.000;    0.000;4599.93282
 745.16; 4794.942;   -2.000;    0.000;4796.94193
 745.73; 4548.951;  -68.000;    0.000;4616.95104
 746.31; 4553.960;  -78.000;    0.000;4631.96014
 746.88; 4576.969; -113.000;    0.000;4689.96925
 747.46; 4598.978;  -33.000;    0.000;4631.97836
 748.03; 4444.987;  -90.000;    0.000;4534.98746
 748.60; 4647.997;  -71.000;    0.000;4718.99657
 749.18; 4442.006;  -94.000;    0.000;4536.00568
 749.75; 4622.015;   11.000;    0.000;4611.01478
 750.32; 4539.024;  -90.000;    0.000;4629.02389
 750.90; 4506.033;  -68.000;    0.000;4574.03300
 751.47; 4669.042;    5.000;    0.000;4664.04210
 752.04; 4608.051;  -42.000;    0.000;4650.05121
 752.62; 4460.060;  -94.000;    0.000;4554.06032
 753.19; 4501.069;  -72.000;    0.000;4573.06942
 753.76; 4400.079;  -73.000;    0.000;4473.07853
 754.34; 4564.088;  -38.000;    0.000;4602.08764
 754.91; 4397.097;  -52.000;    0.000;4449.09674
 755.48; 4521.106;  -44.000;    0.000;4565.10585
 756.06; 4464.115;   19.000;    0.000;4445.11495
 756.63; 4449.124;   55.000;    0.000;4394.12406
 757.20; 4489.133;  -36.000;    0.000;4525.13317
 757.78; 4364.142;  -87.000;    0.000;4451.14227
 758.35; 4412.151;  -75.000;    0.000;4487.15138
 758.92; 4467.160;  -17.000;    0.000;4484.16049
 759.50; 4308.170;  -32.000;    0.000;4340.16959
 760.07; 4412.179; -105.000;    0.000;4517.17870
 760.64; 4401.188;  -95.000;    0.000;4496.18781
 761.21; 4355.197;  -32.000;    0.000;4387.19691
 761.79; 4235.206; -110.000;    0.000;4345.20602
 762.36; 4221.215;  -19.000;    0.000;4240.21513
 762.93; 4249.224;  -68.000;    0.000;4317.22423
 763.50; 4174.233; -102.000;    0.000;4276.23334
 764.08; 4121.242;  -83.000;    0.000;4204.24245
 764.65; 4169.252;  -60.000;    0.000;4229.25155
 765.22; 4152.261;  -73.000;    0.000;4225.26066
 765.79; 3878.270; -117.000;    0.000;3995.26977
 766.37; 3994.279;  -44.000;    0.000;4038.27887
 766.94; 4198.288;  -12.000;    0.000;4210.28798
 767.51; 4190.297;  -59.000;    0.000;4249.29708
 768.08; 4099.306;  -23.000;    0.000;4122.30619
 768.66; 4022.315;    4.000;    0.000;4018.31530
 769.23; 4078.324;  -49.000;    0.000;4127.32440
 769.80; 3990.334; -123.000;    0.000;4113.33351
 770.37; 3914.343;  -56.000;    0.000;3970.34262
 770.94; 4051.352;  -11.000;    0.000;4062.35172
 771.52; 3904.361; -125.000;    0.000;4029.36083
 772.09; 3994.370;  -22.000;    0.000;4016.36994
 772.66; 3962.379;  -36.000;    0.000;3998.37904
 773.23; 3880.388;  -63.000;    0.000;3943.38815
 773.80; 3885.397;  -32.000;    0.000;3917.39726
 774.38; 3921.406;  -82.000;    0.000;4003.40636
 774.95; 3954.415;  -10.000;    0.000;3964.41547
 775.52; 3820.425;  -19.000;    0.000;3839.42458
 776.09; 3747.434;   -4.000;    0.000;3751.43368
 776.66; 3642.443;  -65.000;    0.000;3707.44279
 777.24; 3682.452;  -72.000;    0.000;3754.45190
 777.81; 3724.461;  -24.000;    0.000;3748.46100
 778.38; 3589.470;  -84.000;    0.000;3673.47011
 778.95; 3525.479;  -59.000;    0.000;3584.47921
 779.52; 3600.488;    1.000;    0.000;3599.48832
 780.09; 3734.497;   93.000;    0.000;3641.49743
 780.66; 3487.507;    5.000;    0.000;3482.50653
 781.24; 3582.516;  -51.000;    0.000;3633.51564
 781.81; 3450.525;  -60.000;    0.000;3510.52475
 782.38; 3471.534;  -77.000;    0.000;3548.53385
 782.95; 3494.543; -116.000;    0.000;3610.54296
 783.52; 3487.552;  -67.000;    0.000;3554.55207
 784.09; 3340.561;    8.000;    0.000;3332.56117
 784.66; 3490.570;   39.000;    0.000;3451.57028
 785.23; 3331.579;  -73.000;    0.000;3404.57939
 785.80; 3310.588;  -59.000;    0.000;3369.58849
 786.38; 3369.598;  -54.000;    0.000;3423.59760
 786.95; 3393.607;  -61.000;    0.000;3454.60671
 787.52; 3240.616;  -79.000;    0.000;3319.61581
 788.09; 3139.625;  -88.000;    0.000;3227.62492
 788.66; 3100.634;  -46.000;    0.000;3146.63403
 789.23; 3278.643;  -56.000;    0.000;3334.64313
 789.80; 3216.652;  -57.000;    0.000;3273.65224
 790.37; 3149.661;  -75.000;    0.000;3224.66134
 790.94; 3353.670;   33.000;    0.000;3320.67045
 791.51; 3237.680;  -24.000;    0.000;3261.67956
 792.08; 2994.689; -115.000;    0.000;3109.68866
 792.65; 3181.698;  -12.000;    0.000;3193.69777
 793.22; 3184.707;  -62.000;    0.000;3246.70688
 793.80; 2992.716; -133.000;    0.000;3125.71598
 794.37; 3122.725;  -13.000;    0.000;3135.72509
 794.94; 3198.734;   41.000;    0.000;3157.73420
 795.51; 3014.743;  -25.000;    0.000;3039.74330
 796.08; 3055.752;  -36.000;    0.000;3091.75241
 796.65; 3001.762;  -63.000;    0.000;3064.76152
 797.22; 2954.771;  -82.000;    0.000;3036.77062
 797.79; 2986.780;   36.000;    0.000;2950.77973
 798.36; 2884.789; -136.000;    0.000;3020.78884
 798.93; 2917.798;  -49.000;    0.000;2966.79794
 799.50; 2876.807; -117.000;    0.000;2993.80705
 800.07; 2716.816; -122.000;    0.000;2838.81616
 800.64; 2908.825;  -57.000;    0.000;2965.82526
 801.21; 2903.834;  -21.000;    0.000;2924.83437
 801.78; 2856.843;  -70.000;    0.000;2926.84347
 802.35; 2717.853; -117.000;    0.000;2834.85258
 802.92; 2815.862;  -70.000;    0.000;2885.86169
 803.49; 2789.871;  -39.000;    0.000;2828.87079
 804.06; 2787.880;  -32.000;    0.000;2819.87990
 804.63; 2773.889;  -42.000;    0.000;2815.88901
 805.20; 2850.898;  -66.000;    0.000;2916.89811
 805.77; 2731.907;  -30.000;    0.000;2761.90722
 806.34; 2684.916; -111.000;    0.000;2795.91633
 806.91; 2853.925;  -69.000;    0.000;2922.92543
 807.47; 2788.935;  -74.000;    0.000;2862.93454
 808.04; 2780.944;  -58.000;    0.000;2838.94365
 808.61; 2679.953;  -88.000;    0.000;2767.95275
 809.18; 2685.962;  -46.000;    0.000;2731.96186
 809.75; 2722.971;  -70.000;    0.000;2792.97097
 810.32; 2747.980;  -84.000;    0.000;2831.98007
 810.89; 2607.989;  -38.000;    0.000;2645.98918
 811.46; 2685.998;   -7.000;    0.000;2692.99829
 812.03; 2693.007;  -38.000;    0.000;2731.00739
 812.60; 2579.016;  -62.000;    0.000;2641.01650
 813.17; 2724.026;  -53.000;    0.000;2777.02560
 813.74; 2842.035;   26.000;    0.000;2816.03471
 814.31; 2635.044;  -95.000;    0.000;2730.04382
 814.87; 2564.053;  -58.000;    0.000;2622.05292
 815.44; 2399.062;  -46.000;    0.000;2445.06203
 816.01; 2616.071;  -21.000;    0.000;2637.07114
 816.58; 2541.080; -116.000;    0.000;2657.08024
 817.15; 2641.089;  -56.000;    0.000;2697.08935
 817.72; 2510.098; -100.000;    0.000;2610.09846
 818.29; 2499.108;   22.000;    0.000;2477.10756
 818.86; 2444.117;   18.000;    0.000;2426.11667
 819.42; 2534.126;  -63.000;    0.000;2597.12578
 819.99; 2518.135;  -63.000;    0.000;2581.13488
 820.56; 2423.144; -119.000;    0.000;2542.14399
 821.13; 2505.153;  -16.000;    0.000;2521.15310
 821.70; 2316.162; -104.000;    0.000;2420.16220
 822.27; 2457.171;  -87.000;    0.000;2544.17131
 822.84; 2495.180;  -32.000;    0.000;2527.18042
 823.40; 2325.190;  -71.000;    0.000;2396.18952
 823.97; 2542.199;   47.000;    0.000;2495.19863
 824.54; 2450.208; -113.000;    0.000;2563.20773
 825.11; 2468.217; -132.000;    0.000;2600.21684
 825.68; 2601.226;  105.000;    0.000;2496.22595
 826.24; 2340.235;  -36.000;    0.000;2376.23505
 826.81; 2351.244;  -70.000;    0.000;2421.24416
 827.38; 2399.253;  -85.000;    0.000;2484.25327
 827.95; 2210.262;    5.000;    0.000;2205.26237
 828.52; 2276.271;  -72.000;    0.000;2348.27148
 829.08; 2366.281;  -53.000;    0.000;2419.28059
 829.65; 2357.290;  -74.000;    0.000;2431.28969
 830.22; 2329.299;   -8.000;    0.000;2337.29880
 830.79; 2253.308;  -90.000;    0.000;2343.30791
 831.36; 2354.317;  -77.000;    0.000;2431.31701
 831.92; 2471.326;   65.000;    0.000;2406.32612
 832.49; 2254.335;  -74.000;    0.000;2328.33523
 833.06; 2252.344;   -9.000;    0.000;2261.34433
 833.63; 2284.353;  -54.000;    0.000;2338.35344
 834.19; 2309.363;  -85.000;    0.000;2394.36255
 834.76; 2181.372;  -53.000;    0.000;2234.37165
 835.33; 2265.381; -124.000;    0.000;2389.38076
 835.90; 2150.390;  -76.000;    0.000;2226.38986
 836.46; 2312.399;  -92.000;    0.000;2404.39897
 837.03; 2254.408;  -74.000;    0.000;2328.40808
 837.60; 2182.417;  -85.000;    0.000;2267.41718
 838.17; 2196.426;  -23.000;    0.000;2219.42629
 838.73; 2177.435;  -23.000;    0.000;2200.43540
 839.30; 2136.445;   -9.000;    0.000;2145.44450
 839.87; 2249.454;    4.000;    0.000;2245.45361
 840.43; 2161.463;  -48.000;    0.000;2209.46272
 841.00; 2212.472;    2.000;    0.000;2210.47182
 841.57; 2114.481;  -49.000;    0.000;2163.48093
 842.14; 2284.490;  -79.000;    0.000;2363.49004
 842.70; 2314.499;  -59.000;    0.000;2373.49914
 843.27; 2260.508;  -73.000;    0.000;2333.50825
 843.84; 2196.517;  -40.000;    0.000;2236.51736
 844.40; 2137.526;  -79.000;    0.000;2216.52646
 844.97; 2204.536;  -51.000;    0.000;2255.53557
 845.54; 2161.545;  -58.000;    0.000;2219.54468
 846.10; 2100.554;  -36.000;    0.000;2136.55378
 846.67; 2060.563; -103.000;    0.000;2163.56289
 847.24; 2162.572;  -85.000;    0.000;2247.57199
 847.80; 2218.581;  -66.000;    0.000;2284.58110
 848.37; 2112.590;  -96.000;    0.000;2208.59021
 848.94; 2158.599;   33.000;    0.000;2125.59931
 849.50; 2236.608;   19.000;    0.000;2217.60842
 850.07; 2127.618;  -69.000;    0.000;2196.61753
 850.63; 2115.627;   24.000;    0.000;2091.62663
 851.20; 2152.636;  -85.000;    0.000;2237.63574
 851.77; 2089.645;  -61.000;    0.000;2150.64485
 852.33; 2178.654;  -29.000;    0.000;2207.65395
 852.90; 2151.663;  -66.000;    0.000;2217.66306
 853.47; 2175.672;  -21.000;    0.000;2196.67217
 854.03; 1960.681;  -94.000;    0.000;2054.68127
 854.60; 2166.690;  -39.000;    0.000;2205.69038
 855.16; 2209.699;  -10.000;    0.000;2219.69949
 855.73; 2077.709;  -22.000;    0.000;2099.70859
 856.30; 2079.718;   22.000;    0.000;2057.71770
 856.86; 2084.727;  -58.000;    0.000;2142.72681
 857.43; 2247.736;   -3.000;    0.000;2250.73591
 857.99; 1946.745;  -14.000;    0.000;1960.74502
 858.56; 1990.754; -122.000;    0.000;2112.75412
 859.12; 1935.763;  -30.000;    0.000;1965.76323
 859.69; 1972.772;  -84.000;    0.000;2056.77234
 860.26; 1901.781;  -54.000;    0.000;1955.78144
 860.82; 2003.791;  -50.000;    0.000;2053.79055
 861.39; 1987.800;  -68.000;    0.000;2055.79966
 861.95; 1977.809;  -48.000;    0.000;2025.80876
 862.52; 2004.818;   -1.000;    0.000;2005.81787
 863.08; 1930.827;  -66.000;    0.000;1996.82698
 863.65; 2019.836;  -14.000;    0.000;2033.83608
 864.21; 1937.845;  -69.000;    0.000;2006.84519
 864.78; 2114.854;  -13.000;    0.000;2127.85430
 865.34; 2176.863;  154.000;    0.000;2022.86340
 865.91; 1881.873;  -38.000;    0.000;1919.87251
 866.47; 1853.882;  -58.000;    0.000;1911.88162
 867.04; 1918.891;  -77.000;    0.000;1995.89072
 867.61; 1777.900; -110.000;    0.000;1887.89983
 868.17; 1766.909;  -12.000;    0.000;1778.90894
 868.74; 1930.918;  -60.000;    0.000;1990.91804
 869.30; 1794.927;  -72.000;    0.000;1866.92715
 869.86; 1853.936; -110.000;    0.000;1963.93625
 870.43; 1798.945;  -72.000;    0.000;1870.94536
 870.99; 1721.954; -115.000;    0.000;1836.95447
 871.56; 1939.964;  -63.000;    0.000;2002.96357
 872.12; 1773.973;  -65.000;    0.000;1838.97268
 872.69; 1732.982; -100.000;    0.000;1832.98179
 873.25; 1851.991;  -23.000;    0.000;1874.99089
 873.82; 1777.000;  -68.000;    0.000;1845.00000
 874.38; 1816.000;    7.000;    0.000;1809.00000
 874.95; 1841.000;    5.000;    0.000;1836.00000
 875.51; 1791.000;  -13.000;    0.000;1804.00000
 876.08; 1634.000;  -54.000;    0.000;1688.00000
 876.64; 1643.000; -117.000;    0.000;1760.00000
 877.20; 1700.000; -119.000;    0.000;1819.00000
 877.77; 1641.000;  -71.000;    0.000;1712.00000
 878.33; 1616.000;  -69.000;    0.000;1685.00000
 878.90; 1569.000;  -58.000;    0.000;1627.00000
 879.46; 1666.000;  -83.000;    0.000;1749.00000
 880.03; 1740.000;   -3.000;    0.000;1743.00000
 880.59; 1649.000;  -86.000;    0.000;1735.00000
 881.15; 1708.000;   12.000;    0.000;1696.00000
 881.72; 1601.000;  -54.000;    0.000;1655.00000
 882.28; 1557.000;    7.000;    0.000;1550.00000
 882.85; 1532.000;  -88.000;    0.000;1620.00000
 883.41; 1645.000;  -32.000;    0.000;1677.00000
 883.97; 1914.000;  247.000;    0.000;1667.00000
 884.54; 1601.000;  -62.000;    0.000;1663.00000
 885.10; 1451.000;  -57.000;    0.000;1508.00000
 885.66; 1644.000;   -9.000;    0.000;1653.00000
 886.23; 1551.000;  -47.000;    0.000;1598.00000
 886.79; 1569.000;  -62.000;    0.000;1631.00000
 887.36; 1513.000;   10.000;    0.000;1503.00000
 887.92; 1414.000;  -94.000;    0.000;1508.00000
 888.48; 1450.000; -117.000;    0.000;1567.00000
 889.05; 1390.000; -131.000;    0.000;1521.00000
 889.61; 1471.000;  -40.000;    0.000;1511.00000
 890.17; 1423.000;  -54.000;    0.000;1477.00000
 890.74; 1375.000;  -50.000;    0.000;1425.00000
 891.30; 1333.000;  -60.000;    0.000;1393.00000
 891.86; 1415.000;  -58.000;    0.000;1473.00000
 892.43; 1396.000; -119.000;    0.000;1515.00000
 892.99; 1460.000;  -52.000;    0.000;1512.00000
 893.55; 1334.000;  -86.000;    0.000;1420.00000
 894.11; 1349.000;  -55.000;    0.000;1404.00000
 894.68; 1336.000;  -48.000;    0.000;1384.00000
 895.24; 1464.000;   24.000;    0.000;1440.00000
 895.80; 1324.000;  -65.000;    0.000;1389.00000
 896.37; 1455.000;  -58.000;    0.000;1513.00000
 896.93; 1297.000;  -21.000;    0.000;1318.00000
 897.49; 1254.000; -109.000;    0.000;1363.00000
 898.05; 1314.000;  -17.000;    0.000;1331.00000
 898.62; 1498.000;   47.000;    0.000;1451.00000
 899.18; 1346.000;  -86.000;    0.000;1432.00000
 899.74; 1501.000;   63.000;    0.000;1438.00000
 900.31; 1321.000;  -12.000;    0.000;1333.00000
 900.87; 1239.000;  -63.000;    0.000;1302.00000
 901.43; 1303.000; -166.000;    0.000;1469.00000
 901.99; 1353.000;  -66.000;    0.000;1419.00000
 902.56; 1337.000;  -22.000;    0.000;1359.00000
 903.12; 1493.000;   45.000;    0.000;1448.00000
 903.68; 1378.000; -107.000;    0.000;1485.00000
 904.24; 1448.000;  -48.000;    0.000;1496.00000
 904.80; 1367.000;   -6.000;    0.000;1373.00000
 905.37; 1249.000;  -32.000;    0.000;1281.00000
 905.93; 1449.000;  -31.000;    0.000;1480.00000
 906.49; 1505.000;   -2.000;    0.000;1507.00000
 907.05; 1312.000; -107.000;    0.000;1419.00000
 907.61; 1414.000;  -26.000;    0.000;1440.00000
 908.18; 1525.000;   25.000;    0.000;1500.00000
 908.74; 1459.000;  -34.000;    0.000;1493.00000
 909.30; 1221.000;  -94.000;    0.000;1315.00000
 909.86; 1254.000;  -74.000;    0.000;1328.00000
 910.42; 1325.000; -104.000;    0.000;1429.00000
 910.99; 1303.000;   14.000;    0.000;1289.00000
 911.55; 1336.000;  -74.000;    0.000;1410.00000
 912.11; 1363.000;  -46.000;    0.000;1409.00000
 912.67; 1339.000;  -28.000;    0.000;1367.00000
 913.23; 1225.000;  -93.000;    0.000;1318.00000
 913.79; 1046.000;  -38.000;    0.000;1084.00000
 914.36; 1264.000;  -26.000;    0.000;1290.00000
 914.92; 1266.000;  -48.000;    0.000;1314.00000
 915.48; 1142.000;  -69.000;    0.000;1211.00000
 916.04; 1295.000;   66.000;    0.000;1229.00000
 916.60; 1237.000;  -74.000;    0.000;1311.00000
 917.16; 1174.000;  -68.000;    0.000;1242.00000
 917.72; 1191.000;  -81.000;    0.000;1272.00000
 918.28; 1073.000;  -56.000;    0.000;1129.00000
 918.85; 1274.000;    0.000;    0.000;1274.00000
 919.41; 1221.000;  -24.000;    0.000;1245.00000
 919.97; 1091.000;  -99.000;    0.000;1190.00000
 920.53; 1132.000;  -86.000;    0.000;1218.00000
 921.09; 1143.000;   65.000;    0.000;1078.00000
 921.65; 1015.000;  -75.000;    0.000;1090.00000
 922.21; 1067.000;  -79.000;    0.000;1146.00000
 922.77;  950.000;  -81.000;    0.000;1031.00000
 923.33; 1062.000;  -20.000;    0.000;1082.00000
 923.89; 1054.000;  -51.000;    0.000;1105.00000
 924.45; 1006.000;  -82.000;    0.000;1088.00000
 925.01;  988.000;  -45.000;    0.000;1033.00000
 925.58; 1005.000;  -31.000;    0.000;1036.00000
 926.14; 1009.000;  -59.000;    0.000;1068.00000
 926.70; 1055.000;  -66.000;    0.000;1121.00000
 927.26; 1023.000;   -8.000;    0.000;1031.00000
 927.82; 1064.000;  -27.000;    0.000;1091.00000
 928.38;  911.000;  -35.000;    0.000;946.00000
 928.94;  907.000;  -46.000;    0.000;953.00000
 929.50;  972.000;  -32.000;    0.000;1004.00000
 930.06;  988.000; -135.000;    0.000;1123.00000
 930.62;  860.000; -101.000;    0.000;961.00000
 931.18; 1096.000;    0.000;    0.000;1096.00000
 931.74;  974.000;  -92.000;    0.000;1066.00000
 932.30;  958.000;  -83.000;    0.000;1041.00000
 932.86;  898.000;  -77.000;    0.000;975.00000
 933.42;  982.000;  -91.000;    0.000;1073.00000
 933.98;  984.000;  -53.000;    0.000;1037.00000
 934.54;  863.000;   -9.000;    0.000;872.00000
 935.10;  813.000;  -91.000;    0.000;904.00000
 935.66;  813.000;  -69.000;    0.000;882.00000
 936.22;  809.000;  -57.000;    0.000;866.00000
 936.78;  816.000;  -61.000;    0.000;877.00000
 937.34;  854.000;  -46.000;    0.000;900.00000
 937.90;  803.000;  -30.000;    0.000;833.00000
 938.46;  807.000;  -34.000;    0.000;841.00000
 939.02;  779.000;  -45.000;    0.000;824.00000
 939.58;  734.000; -130.000;    0.000;864.00000
 940.14;  817.000;  -54.000;    0.000;871.00000
 940.70;  856.000;   -6.000;    0.000;862.00000
 941.25;  816.000;  -90.000;    0.000;906.00000
 941.81;  712.000;  -66.000;    0.000;778.00000
 942.37;  827.000;  -62.000;    0.000;889.00000
 942.93;  723.000; -108.000;    0.000;831.00000
 943.49;  736.000;  -64.000;    0.000;800.00000
 944.05;  630.000; -102.000;    0.000;732.00000
 944.61;  726.000;    8.000;    0.000;718.00000
 945.17;  690.000;  -82.000;    0.000;772.00000
 945.73;  640.000;  -47.000;    0.000;687.00000
 946.29;  638.000;  -75.000;    0.000;713.00000
 946.85;  617.000; -114.000;    0.000;731.00000
 947.40;  683.000; -121.000;    0.000;804.00000
 947.96;  685.000;  -34.000;    0.000;719.00000
 948.52;  662.000;  -89.000;    0.000;751.00000
 949.08;  701.000;  -52.000;    0.000;753.00000
 949.64;  751.000;   26.000;    0.000;725.00000
 950.20;  646.000;  -25.000;    0.000;671.00000
 950.76;  627.000;  -50.000;    0.000;677.00000
 951.32;  585.000;  -83.000;    0.000;668.00000
 951.87;  629.000;  -63.000;    0.000;692.00000
 952.43;  666.000;   12.000;    0.000;654.00000
 952.99;  691.000;    2.000;    0.000;689.00000
 953.55;  674.000;  -28.000;    0.000;702.00000
 954.11;  533.000; -127.000;    0.000;660.00000
 954.67;  591.000;  -56.000;    0.000;647.00000
 955.22;  515.000;  -53.000;    0.000;568.00000
 955.78;  672.000;   30.000;    0.000;642.00000
 956.34;  661.000;  -15.000;    0.000;676.00000
 956.90;  613.000;  -80.000;    0.000;693.00000
 957.46;  590.000;  -89.000;    0.000;679.00000
 958.01;  742.000;   -9.000;    0.000;751.00000
 958.57;  628.000;  -72.000;    0.000;700.00000
 959.13;  711.000;  -48.000;    0.000;759.00000
 959.69;  547.000;  -47.000;    0.000;594.00000
 960.25;  647.000;  -71.000;    0.000;718.00000
 960.80;  671.000;  -68.000;    0.000;739.00000
 961.36;  626.000;  -47.000;    0.000;673.00000
 961.92;  470.000; -147.000;    0.000;617.00000
 962.48;  544.000;  -90.000;    0.000;634.00000
 963.03;  626.000;  -77.000;    0.000;703.00000
 963.59;  618.000;  -29.000;    0.000;647.00000
 964.15;  591.000;  -99.000;    0.000;690.00000
 964.71;  661.000;  -46.000;    0.000;707.00000
 965.26;  578.000;  -96.000;    0.000;674.00000
 965.82;  647.000;  -53.000;    0.000;700.00000
 966.38;  535.000;  -68.000;    0.000;603.00000
 966.94;  528.000;  -82.000;    0.000;610.00000
 967.49;  525.000;  -82.000;    0.000;607.00000
 968.05;  569.000; -143.000;    0.000;712.00000
 968.61;  634.000;   56.000;    0.000;578.00000
 969.17;  438.000;  -95.000;    0.000;533.00000
 969.72;  458.000; -108.000;    0.000;566.00000
 970.28;  551.000;  -64.000;    0.000;615.00000
 970.84;  541.000;  -91.000;    0.000;632.00000
 971.39;  569.000;  -27.000;    0.000;596.00000
 971.95;  485.000;  -95.000;    0.000;580.00000
 972.51;  503.000; -107.000;    0.000;610.00000
 973.06;  568.000;   13.000;    0.000;555.00000
 973.62;  621.000;  -18.000;    0.000;639.00000
 974.18;  441.000;  -65.000;    0.000;506.00000
 974.73;  495.000;  -78.000;    0.000;573.00000
 975.29;  580.000;   57.000;    0.000;523.00000
 975.85;  512.000;  -36.000;    0.000;548.00000
 976.40;  475.000;  -54.000;    0.000;529.00000
 976.96;  455.000;  -81.000;    0.000;536.00000
 977.52;  528.000;  -24.000;    0.000;552.00000
 978.07;  500.000;  -56.000;    0.000;556.00000
 978.63;  450.000;  -93.000;    0.000;543.00000
 979.19;  538.000;  -22.000;    0.000;560.00000
 979.74;  586.000;  -30.000;    0.000;616.00000
 980.30;  434.000;  -95.000;    0.000;529.00000
 980.85;  418.000;  -17.000;    0.000;435.00000
 981.41;  387.000;  -69.000;    0.000;456.00000
 981.97;  347.000;  -98.000;    0.000;445.00000
 982.52;  445.000; -104.000;    0.000;549.00000
 983.08;  387.000;   -1.000;    0.000;388.00000
 983.63;  415.000;   13.000;    0.000;402.00000
 984.19;  474.000;  -84.000;    0.000;558.00000
 984.75;  394.000;  -90.000;    0.000;484.00000
 985.30;  329.000; -105.000;    0.000;434.00000
 985.86;  424.000;  -75.000;    0.000;499.00000
 986.41;  402.000; -131.000;    0.000;533.00000
 986.97;  327.000; -119.000;    0.000;446.00000
 987.52;  289.000;  -74.000;    0.000;363.00000
 988.08;  297.000;  -99.000;    0.000;396.00000
 988.64;  320.000; -103.000;    0.000;423.00000
 989.19;  375.000; -112.000;    0.000;487.00000
 989.75;  420.000;  -19.000;    0.000;439.00000
 990.30;  311.000; -110.000;    0.000;421.00000
 990.86;  329.000;  -57.000;    0.000;386.00000
 991.41;  350.000;  -66.000;    0.000;416.00000
 991.97;  406.000;  -57.000;    0.000;463.00000
 992.52;  356.000; -112.000;    0.000;468.00000
 993.08;  312.000;  -80.000;    0.000;392.00000
 993.63;  409.000; -115.000;    0.000;524.00000
 994.19;  313.000;  -76.000;    0.000;389.00000
 994.74;  255.000; -111.000;    0.000;366.00000
 995.30;  260.000; -125.000;    0.000;385.00000
 995.85;  240.000; -109.000;    0.000;349.00000
 996.41;  243.000;  -47.000;    0.000;290.00000
 996.96;  381.000;  -65.000;    0.000;446.00000
 997.52;  402.000;   69.000;    0.000;333.00000
 998.07;  334.000;  -39.000;    0.000;373.00000
 998.63;  208.000; -126.000;    0.000;334.00000
 999.18;  358.000;  -20.000;    0.000;378.00000
 999.74;  353.000;  -88.000;    0.000;441.00000
1000.29;  307.000; -110.000;    0.000;417.00000
1000.85;  243.000;  -57.000;    0.000;300.00000
1001.40;  238.000;  -42.000;    0.000;280.00000
1001.96;  153.000;  -17.000;    0.000;170.00000
1002.51;  295.000;  -47.000;    0.000;342.00000
1003.06;  238.000;  -94.000;    0.000;332.00000
1003.62;  378.000;   21.000;    0.000;357.00000
1004.17;  233.000; -108.000;    0.000;341.00000
1004.73;  233.000;  -95.000;    0.000;328.00000
1005.28;  422.000;   83.000;    0.000;339.00000
1005.83;  211.000; -104.000;    0.000;315.00000
1006.39;  165.000; -107.000;    0.000;272.00000
1006.94;  195.000; -103.000;    0.000;298.00000
1007.50;  321.000;  -39.000;    0.000;360.00000
1008.05;  261.000;  -93.000;    0.000;354.00000
1008.60;  248.000;  -49.000;    0.000;297.00000
1009.16;  277.000;  -34.000;    0.000;311.00000
1009.71;  306.000;  -11.000;    0.000;317.00000
1010.27;  309.000; -134.000;    0.000;443.00000
1010.82;  249.000;  -90.000;    0.000;339.00000
1011.37;  300.000;  -17.000;    0.000;317.00000
1011.93;  331.000;    2.000;    0.000;329.00000
1012.48;  323.000;  -24.000;    0.000;347.00000
1013.03;  209.000; -102.000;    0.000;311.00000
1013.59;  311.000;  -70.000;    0.000;381.00000
1014.14;  218.000; -116.000;    0.000;334.00000
1014.69;  232.000;  -80.000;    0.000;312.00000
1015.25;  412.000;   81.000;    0.000;331.00000
1015.80;  315.000;  -40.000;    0.000;355.00000
1016.35;  166.000;  -74.000;    0.000;240.00000
1016.91;  191.000;  -93.000;    0.000;284.00000
1017.46;  144.000;  -71.000;    0.000;215.00000
1018.01;  206.000; -120.000;    0.000;326.00000
1018.57;  180.000; -109.000;    0.000;289.00000
1019.12;  225.000; -100.000;    0.000;325.00000
1019.67;  202.000;  -36.000;    0.000;238.00000
1020.23;  264.000;    0.000;    0.000;264.00000
1020.78;  143.000;  -87.000;    0.000;230.00000
1021.33;  148.000;  -27.000;    0.000;175.00000
1021.88;  259.000;  -39.000;    0.000;298.00000
1022.44;  237.000;   27.000;    0.000;210.00000
1022.99;  140.000;  -95.000;    0.000;235.00000
1023.54;  110.000; -140.000;    0.000;250.00000
1024.09;  214.000;    5.000;    0.000;209.00000
1024.65;  174.000;  -70.000;    0.000;244.00000
1025.20;   69.000;  -86.000;    0.000;155.00000
1025.75;  168.000; -112.000;    0.000;280.00000
1026.30;  125.000;  -23.000;    0.000;148.00000
1026.86;  181.000;  -82.000;    0.000;263.00000
1027.41;  179.000;    6.000;    0.000;173.00000
1027.96;   93.000;  -88.000;    0.000;181.00000
1028.51;  150.000;   27.000;    0.000;123.00000
1029.07;  151.000;  -72.000;    0.000;223.00000
1029.62;  127.000;  -96.000;    0.000;223.00000
1030.17;  180.000;   34.000;    0.000;146.00000
1030.72;  139.000;  -13.000;    0.000;152.00000
1031.27;  137.000;  -29.000;    0.000;166.00000
1031.83;  120.000;  -51.000;    0.000;171.00000
1032.38;  256.000;   -7.000;    0.000;263.00000
1032.93;  154.000;  -64.000;    0.000;218.00000
1033.48;   42.000;  -55.000;    0.000;97.00000
1034.03;   95.000;  -92.000;    0.000;187.00000
1034.58;  154.000;  -52.000;    0.000;206.00000
1035.14;   88.000;  -85.000;    0.000;173.00000
1035.69;   97.000;  -73.000;    0.000;170.00000
1036.24;   55.000; -115.000;    0.000;170.00000
1036.79;  170.000; -119.000;    0.000;289.00000
1037.34;   99.000;  -81.000;    0.000;180.00000
1037.89;   42.000; -129.000;    0.000;171.00000
1038.45;   27.000; -122.000;    0.000;149.00000
1039.00;   80.000;  -28.000;    0.000;108.00000
1039.55;   51.000;  -61.000;    0.000;112.00000
1040.10;  200.000;   11.000;    0.000;189.00000
1040.65;   31.000;  -96.000;    0.000;127.00000
1041.20;   24.000; -102.000;    0.000;126.00000
1041.75;  102.000; -103.000;    0.000;205.00000
1042.30;   54.000; -105.000;    0.000;159.00000
1042.85;   16.000;  -86.000;    0.000;102.00000
1043.41;  106.000;  -33.000;    0.000;139.00000
1043.96;  -16.000;  -98.000;    0.000;82.00000
1044.51;   35.000;  -88.000;    0.000;123.00000
1045.06;  135.000;   20.000;    0.000;115.00000
1045.61;   98.000;  -54.000;    0.000;152.00000
1046.16;  103.000;  -38.000;    0.000;141.00000
1046.71;   56.000;  -68.000;    0.000;124.00000
1047.26;   54.000;  -75.000;    0.000;129.00000
1047.81;   18.000; -101.000;    0.000;119.00000
1048.36;    5.000; -128.000;    0.000;133.00000
1048.91; 1058.000;  740.000;    0.000;318.00000
1049.46;  202.000;   71.000;    0.000;131.00000
1050.01;   41.000; -100.000;    0.000;141.00000
1050.56;   -7.000; -144.000;    0.000;137.00000
1051.11;   27.000;    5.000;    0.000;22.00000
1051.66;  -27.000;  -89.000;    0.000;62.00000
1052.21;   59.000;  -67.000;    0.000;126.00000
1052.76;   47.000;  -79.000;    0.000;126.00000
1053.31;   63.000;  -53.000;    0.000;116.00000
1053.86;   -6.000;  -15.000;    0.000; 9.00000
1054.41;   37.000;  -45.000;    0.000;82.00000
1054.96;    0.000;  -63.000;    0.000;63.00000
1055.51;  280.000;  140.000;    0.000;140.00000
1056.06;  -22.000;  -78.000;    0.000;56.00000
1056.61;  163.000;   66.000;    0.000;97.00000
1057.16;    5.000;  -48.000;    0.000;53.00000
1057.71;   30.000; -120.000;    0.000;150.00000
1058.26;  -20.000; -105.000;    0.000;85.00000
1058.81;   15.000;   12.000;    0.000; 3.00000
1059.36;  -48.000; -114.000;    0.000;66.00000
1059.91;   97.000;  -47.000;    0.000;144.00000
1060.46;  -87.000;  -67.000;    0.000;-20.00000
1061.01;    8.000; -121.000;    0.000;129.00000
1061.56;  -40.000;  -93.000;    0.000;53.00000
1062.11;   76.000;  -24.000;    0.000;100.00000
1062.66;  -73.000;  -39.000;    0.000;-34.00000
1063.21;  -11.000; -140.000;    0.000;129.00000
1063.76;   -8.000;  -42.000;    0.000;34.00000
1064.31;   26.000;  -71.000;    0.000;97.00000
1064.86;  -48.000;  -97.000;    0.000;49.00000
1065.40;  166.000;   -6.000;    0.000;172.00000
1065.95;  -23.000;  -21.000;    0.000;-2.00000
1066.50;  -10.000; -100.000;    0.000;90.00000
1067.05;   -5.000;  -91.000;    0.000;86.00000
1067.60;   34.000;   27.000;    0.000; 7.00000
1068.15;  -13.000;  -46.000;    0.000;33.00000
1068.70;  -73.000;  -75.000;    0.000; 2.00000
1069.25;   21.000;  -79.000;    0.000;100.00000
1069.79;  -32.000;  -54.000;    0.000;22.00000
1070.34;  -81.000; -116.000;    0.000;35.00000
1070.89;   54.000;   -8.000;    0.000;62.00000
1071.44;  -26.000;  -61.000;    0.000;35.00000
1071.99;  177.000;   96.000;    0.000;81.00000
1072.54;  -54.000;  -88.000;    0.000;34.00000
1073.09;   24.000;  -19.000;    0.000;43.00000
1073.63;  -27.000;  -43.000;    0.000;16.00000
1074.18;   25.000;  -17.000;    0.000;42.00000
1074.73; -121.000;  -79.000;    0.000;-42.00000
1075.28;   89.000;    1.000;    0.000;88.00000
1075.83;  -36.000;  -89.000;    0.000;53.00000
1076.38;  -87.000; -122.000;    0.000;35.00000
1076.92;  -47.000;  -90.000;    0.000;43.00000
1077.47;   38.000;  -28.000;    0.000;66.00000
1078.02;   47.000;   45.000;    0.000; 2.00000
1078.57;  -62.000; -107.000;    0.000;45.00000
1079.11;   13.000;  -50.000;    0.000;63.00000
1079.66;  -57.000;  -86.000;    0.000;29.00000
1080.21;  -19.000;  -73.000;    0.000;54.00000
1080.76;  -24.000;  -18.000;    0.000;-6.00000
1081.31;  -85.000; -103.000;    0.000;18.00000
1081.85;  -77.000;  -76.000;    0.000;-1.00000
1082.40;    4.000;  -10.000;    0.000;14.00000
1082.95;  -41.000; -109.000;    0.000;68.00000
1083.50;  -14.000;  -20.000;    0.000; 6.00000
1084.04;    6.000;  -68.000;    0.000;74.00000
1084.59;   -4.000; -107.000;    0.000;103.00000
1085.14;  -66.000; -104.000;    0.000;38.00000
1085.69;   -4.000;  -32.000;    0.000;28.00000
1086.23;   15.000;   -9.000;    0.000;24.00000
1086.78;  -13.000;  -41.000;    0.000;28.00000
1087.33;   12.000;  -34.000;    0.000;46.00000
1087.87;  -31.000;  -93.000;    0.000;62.00000
1088.42;   66.000;  -27.000;    0.000;93.00000
1088.97;  -80.000;  -88.000;    0.000; 8.00000
1089.52;    6.000;  -75.000;    0.000;81.00000
1090.06;  -62.000; -126.000;    0.000;64.00000
1090.61;  -61.000;  -45.000;    0.000;-16.00000
1091.16;  -41.000;  -85.000;    0.000;44.00000
1091.70;  -56.000;  -83.000;    0.000;27.00000
1092.25;  -61.000;  -79.000;    0.000;18.00000
1092.80;  -15.000;  -80.000;    0.000;65.00000
1093.34;  -64.000;  -50.000;    0.000;-14.00000
1093.89;    6.000;  -51.000;    0.000;57.00000
1094.44;   56.000;  -39.000;    0.000;95.00000
1094.98;  124.000;  -32.000;    0.000;156.00000
1095.53;  -31.000;  -67.000;    0.000;36.00000
1096.07;  -58.000;  -38.000;    0.000;-20.00000
1096.62;  -89.000;  -75.000;    0.000;-14.00000
1097.17;  -16.000;   -4.000;    0.000;-12.00000
1097.71;  -18.000;  -23.000;    0.000; 5.00000
1098.26;  -85.000; -132.000;    0.000;47.00000
1098.81;    5.000;  -34.000;    0.000;39.00000
1099.35;  -68.000; -102.000;    0.000;34.00000
1099.90;  -74.000;  -57.000;    0.000;-17.00000
1100.44;  -59.000; -172.000;    0.000;113.00000

