
Integration time [ms]: 1000.000
Averaging Nr. [scans]: 1
Smoothing Nr. [pixels]: 0
Data measured with spectrometer [name]: 1701237U1
Wave   ;Sample   ;Dark     ;Reference;Scope Corrected for Dark
[nm]   ;[counts] ;[counts] ;[counts] ;[counts] 

 173.88;   -8.006;  -33.000;    0.000;24.99441
 174.48;   -0.004;  -46.000;    0.000;45.99636
 175.09;  -19.001;  -17.000;    0.000;-2.00135
 175.69;   13.996;    9.000;    0.000; 4.99646
 176.30;   65.994;   12.000;    0.000;53.99420
 176.90;  -32.002;  -29.000;    0.000;-3.00200
 177.51;   19.999;   -4.000;    0.000;23.99878
 178.11;   25.996;   27.000;    0.000;-1.00413
 178.72;  -59.002;  -75.000;    0.000;15.99771
 179.32;  -23.005;  -41.000;    0.000;17.99522
 179.93;  -52.005;  -16.000;    0.000;-36.00456
 180.54;  -22.001;  -23.000;    0.000; 0.99870
 181.14;   30.994;   46.000;    0.000;-15.00567
 181.75;  -14.002;   34.000;    0.000;-48.00162
 182.35;  -47.001;  -62.000;    0.000;14.99882
 182.96;   23.998;   69.000;    0.000;-45.00249
 183.56;   22.994;  -51.000;    0.000;73.99393
 184.17;  124.997;   90.000;    0.000;34.99667
 184.77;  -39.001;  -12.000;    0.000;-27.00124
 185.38;  -86.004;   -8.000;    0.000;-78.00372
 185.98;   29.996;  -19.000;    0.000;48.99610
 186.59;   18.998;   28.000;    0.000;-9.00225
 187.19;   40.997;  -46.000;    0.000;86.99688
 187.80;   55.995;    3.000;    0.000;52.99469
 188.40;  -17.008;  -37.000;    0.000;19.99198
 189.01;   56.996;  -12.000;    0.000;68.99611
 189.61;   -4.003;  -25.000;    0.000;20.99748
 190.21;  -48.005;  -74.000;    0.000;25.99465
 190.82;  -16.005;  -22.000;    0.000; 5.99526
 191.42;   -5.006;  -25.000;    0.000;19.99395
 192.03;  -53.006;   25.000;    0.000;-78.00638
 192.63;  -90.007;  -45.000;    0.000;-45.00718
 193.24;   35.998;   16.000;    0.000;19.99822
 193.84;  -50.009;  -50.000;    0.000;-0.00862
 194.45;  -50.007;  -26.000;    0.000;-24.00727
 195.05;  -71.005;  -30.000;    0.000;-41.00477
 195.66;  -31.007;   -8.000;    0.000;-23.00671
 196.26;   65.991;   23.000;    0.000;42.99110
 196.87;  -57.008;   18.000;    0.000;-75.00783
 197.47;  -11.006;  -52.000;    0.000;40.99363
 198.07;  -53.009; -122.000;    0.000;68.99135
 198.68;  -72.009;  -37.000;    0.000;-35.00916
 199.28;   18.995;  -42.000;    0.000;60.99464
 199.89;   -5.011;    4.000;    0.000;-9.01138
 200.49;  -59.009;    7.000;    0.000;-66.00871
 201.10;   28.993;   16.000;    0.000;12.99320
 201.70;   -0.009;   46.000;    0.000;-46.00937
 202.31;  -43.004;  -50.000;    0.000; 6.99590
 202.91;  -10.004;   31.000;    0.000;-41.00419
 203.51;    1.993;   -5.000;    0.000; 6.99306
 204.12;  -11.001;   15.000;    0.000;-26.00097
 204.72;  -12.002;   34.000;    0.000;-46.00249
 205.33;  -39.004;  -26.000;    0.000;-13.00411
 205.93;  -35.005;  -11.000;    0.000;-24.00508
 206.53;    2.994; -100.000;    0.000;102.99433
 207.14;  -60.005;  -51.000;    0.000;-9.00546
 207.74;  -46.005;  -34.000;    0.000;-12.00519
 208.35;  -34.006;  -78.000;    0.000;43.99358
 208.95;   20.995;    3.000;    0.000;17.99462
 209.55;  210.995;  177.000;    0.000;33.99452
 210.16;  -62.006;  -79.000;    0.000;16.99359
 210.76;  -23.006;   28.000;    0.000;-51.00605
 211.37;  -45.006;  -54.000;    0.000; 8.99421
 211.97;  -70.004;  -15.000;    0.000;-55.00376
 212.57;  -18.008;  -33.000;    0.000;14.99154
 213.18;  -39.007;  -66.000;    0.000;26.99320
 213.78;  -57.008;  -21.000;    0.000;-36.00764
 214.38;  186.995;  102.000;    0.000;84.99468
 214.99;   34.993;   -9.000;    0.000;43.99320
 215.59;    4.992;  -53.000;    0.000;57.99201
 216.20;  -25.009;  -78.000;    0.000;52.99122
 216.80;   -3.008;  -39.000;    0.000;35.99171
 217.40;   15.994;    0.000;    0.000;15.99358
 218.01;  -31.009;  -13.000;    0.000;-18.00933
 218.61;  -59.008;  -50.000;    0.000;-9.00751
 219.21;  -27.005;  -44.000;    0.000;16.99458
 219.82;  100.994;   59.000;    0.000;41.99429
 220.42;  -64.006;  -77.000;    0.000;12.99404
 221.02;  -37.011;  -40.000;    0.000; 2.98901
 221.63;  -32.012;  -46.000;    0.000;13.98804
 222.23;  -25.008;  -91.000;    0.000;65.99200
 222.83;   -6.006;  -45.000;    0.000;38.99400
 223.44;   -6.004;  -82.000;    0.000;75.99589
 224.04;   52.988;  -39.000;    0.000;91.98791
 224.64;   -4.009;  -60.000;    0.000;55.99100
 225.25;    2.994;   14.000;    0.000;-11.00587
 225.85;  -33.005;  -50.000;    0.000;16.99535
 226.45;  -57.008;  -12.000;    0.000;-45.00803
 227.06;  122.993;   77.000;    0.000;45.99328
 227.66;  105.994;   79.000;    0.000;26.99439
 228.26;    1.993;  -12.000;    0.000;13.99265
 228.87;  -45.007;  -34.000;    0.000;-11.00748
 229.47;   47.994;   37.000;    0.000;10.99365
 230.07;   10.992;  -24.000;    0.000;34.99209
 230.68;   56.996;   88.000;    0.000;-31.00363
 231.28;    2.992;   -7.000;    0.000; 9.99154
 231.88;  203.992;  108.000;    0.000;95.99236
 232.48;  -58.004;    8.000;    0.000;-66.00424
 233.09;  -32.005;    7.000;    0.000;-39.00489
 233.69;  -44.006;  -79.000;    0.000;34.99384
 234.29;   69.994;   37.000;    0.000;32.99400
 234.90;   11.992;   35.000;    0.000;-23.00829
 235.50;  -27.012;  -67.000;    0.000;39.98767
 236.10;  -20.006;  -81.000;    0.000;60.99420
 236.70;   -8.008;   21.000;    0.000;-29.00789
 237.31;  -49.009;  -38.000;    0.000;-11.00867
 237.91;  -64.008;    4.000;    0.000;-68.00836
 238.51; -106.005;  -64.000;    0.000;-42.00495
 239.11;  -42.000;  -52.000;    0.000; 9.99954
 239.72;  -56.009;  -64.000;    0.000; 7.99054
 240.32;  -68.003;  -82.000;    0.000;13.99704
 240.92;  -20.008;   25.000;    0.000;-45.00793
 241.53;   72.991;   21.000;    0.000;51.99058
 242.13;    4.993;   29.000;    0.000;-24.00700
 242.73;   -4.006;   13.000;    0.000;-17.00571
 243.33;   13.998;  -48.000;    0.000;61.99810
 243.93;  -26.008;  -41.000;    0.000;14.99160
 244.54;  -96.006;  -46.000;    0.000;-50.00635
 245.14;  -45.007;  -35.000;    0.000;-10.00694
 245.74;    9.992;   44.000;    0.000;-34.00811
 246.34;  -65.007;  -11.000;    0.000;-54.00749
 246.95;  -41.009;  -79.000;    0.000;37.99124
 247.55;  -14.008;  -76.000;    0.000;61.99244
 248.15;  -37.011;  -58.000;    0.000;20.98941
 248.75;   -1.005;   11.000;    0.000;-12.00542
 249.36;  -35.010;  -60.000;    0.000;24.98951
 249.96;  -78.005;  -23.000;    0.000;-55.00482
 250.56;  -25.008;  -15.000;    0.000;-10.00756
 251.16;  -14.006;  -40.000;    0.000;25.99418
 251.76;   -3.007;    3.000;    0.000;-6.00723
 252.37;   40.995;   35.000;    0.000; 5.99489
 252.97;  -33.007;  -12.000;    0.000;-21.00694
 253.57;  -68.006;  -13.000;    0.000;-55.00635
 254.17;    8.991;   45.000;    0.000;-36.00854
 254.77;  -13.005;    0.000;    0.000;-13.00524
 255.38;  -58.009;  -69.000;    0.000;10.99141
 255.98;  -18.002;   -9.000;    0.000;-9.00231
 256.58;   49.995;   43.000;    0.000; 6.99479
 257.18;  -49.007;  -27.000;    0.000;-22.00686
 257.78;  -53.007;  -35.000;    0.000;-18.00656
 258.38;  -25.006;  -24.000;    0.000;-1.00642
 258.99;  -97.004;  -47.000;    0.000;-50.00435
 259.59;  -55.006;  -18.000;    0.000;-37.00584
 260.19;  -71.008;  -38.000;    0.000;-33.00785
 260.79;  -46.008;   37.000;    0.000;-83.00764
 261.39;   92.991;  113.000;    0.000;-20.00857
 261.99;  -44.009;  -51.000;    0.000; 6.99101
 262.60;  -44.008;  -68.000;    0.000;23.99151
 263.20;  -71.004; -102.000;    0.000;30.99598
 263.80;  -23.012;  -56.000;    0.000;32.98841
 264.40;  -57.007;  -95.000;    0.000;37.99261
 265.00;   39.994;   16.000;    0.000;23.99355
 265.60;  -50.006;  -19.000;    0.000;-31.00579
 266.20;  -34.005;   12.000;    0.000;-46.00490
 266.81;  -31.006;  -17.000;    0.000;-14.00597
 267.41;  -35.008;   -8.000;    0.000;-27.00820
 268.01;   43.995;   69.000;    0.000;-25.00468
 268.61;  -59.008;  -82.000;    0.000;22.99152
 269.21; -121.009;  -87.000;    0.000;-34.00882
 269.81;  -48.004;   -9.000;    0.000;-39.00390
 270.41;  -29.006;   13.000;    0.000;-42.00633
 271.01;   17.992;  -36.000;    0.000;53.99226
 271.62;   -5.004;  -24.000;    0.000;18.99564
 272.22;  -27.005;  -78.000;    0.000;50.99497
 272.82;   81.993;   12.000;    0.000;69.99266
 273.42;   18.993;   18.000;    0.000; 0.99289
 274.02;  -59.006;  -53.000;    0.000;-6.00590
 274.62;  -47.010;  -69.000;    0.000;21.99028
 275.22;  -23.005;  -62.000;    0.000;38.99515
 275.82;   28.992;  -49.000;    0.000;77.99165
 276.42;  -44.008;  -64.000;    0.000;19.99185
 277.02;  -74.005; -101.000;    0.000;26.99524
 277.63;  -43.008;   52.000;    0.000;-95.00772
 278.23;  -40.008;  -42.000;    0.000; 1.99234
 278.83;  -13.009;    8.000;    0.000;-21.00859
 279.43;   91.992;   63.000;    0.000;28.99169
 280.03;   -1.003;  -18.000;    0.000;16.99745
 280.63;  -40.007;  -65.000;    0.000;24.99290
 281.23;    3.993;   52.000;    0.000;-48.00684
 281.83;  -51.010;  -33.000;    0.000;-18.00955
 282.43; 2309.993; 2084.000;    0.000;225.99285
 283.03;   50.994;   68.000;    0.000;-17.00612
 283.63;  -26.008;  -34.000;    0.000; 7.99239
 284.23;  -64.009;  -37.000;    0.000;-27.00870
 284.83;  -47.009;   -4.000;    0.000;-43.00886
 285.43;   10.994;    1.000;    0.000; 9.99380
 286.03;  -50.004;  -55.000;    0.000; 4.99633
 286.63;   44.992;  -42.000;    0.000;86.99235
 287.23; -100.006;  -76.000;    0.000;-24.00630
 287.84;  -76.005;  -33.000;    0.000;-43.00516
 288.44;  -46.006;  -43.000;    0.000;-3.00571
 289.04;  -55.004;  -58.000;    0.000; 2.99572
 289.64;   -3.006;  -20.000;    0.000;16.99435
 290.24;  -34.013;   -7.000;    0.000;-27.01283
 290.84;  -24.002;  -64.000;    0.000;39.99836
 291.44;  -49.004;   26.000;    0.000;-75.00402
 292.04;   -5.003;    0.000;    0.000;-5.00265
 292.64;   79.995;  -17.000;    0.000;96.99477
 293.24;   24.996;   17.000;    0.000; 7.99614
 293.84;   33.992; -109.000;    0.000;142.99206
 294.44;   29.992;  -20.000;    0.000;49.99241
 295.04;  -49.005;  -59.000;    0.000; 9.99473
 295.64;  -52.003;  -60.000;    0.000; 7.99690
 296.24;  -28.003;  -40.000;    0.000;11.99676
 296.84;  -37.004;  -14.000;    0.000;-23.00428
 297.44;  -51.006;  -85.000;    0.000;33.99353
 298.04;  -70.002;  -43.000;    0.000;-27.00157
 298.64;  -58.003;  -65.000;    0.000; 6.99654
 299.24;  -20.007;  -15.000;    0.000;-5.00732
 299.84;  -59.003;   10.000;    0.000;-69.00348
 300.44;    6.994;  -38.000;    0.000;44.99448
 301.04;  -35.002;  -16.000;    0.000;-19.00215
 301.64;  -65.008;  -26.000;    0.000;-39.00777
 302.24;  -54.007;  -62.000;    0.000; 7.99340
 302.83;  -45.002;  -40.000;    0.000;-5.00181
 303.43;   -9.007;  -30.000;    0.000;20.99262
 304.03;  -47.009;  -97.000;    0.000;49.99079
 304.63; -113.005;  -10.000;    0.000;-103.00477
 305.23;   18.995;  -22.000;    0.000;40.99452
 305.83;  -81.006; -109.000;    0.000;27.99392
 306.43;  -18.006;  -82.000;    0.000;63.99380
 307.03;   15.992;    7.000;    0.000; 8.99248
 307.63;  -24.006;   12.000;    0.000;-36.00601
 308.23;   -5.007;   62.000;    0.000;-67.00719
 308.83;  -40.008;  -12.000;    0.000;-28.00781
 309.43;  -95.010;   -8.000;    0.000;-87.00980
 310.03;   23.990;  -64.000;    0.000;87.98976
 310.63;  -58.009;  -45.000;    0.000;-13.00871
 311.23;  -52.010;    8.000;    0.000;-60.01048
 311.83;  -48.006;  -15.000;    0.000;-33.00630
 312.43;  -55.004;   13.000;    0.000;-68.00432
 313.02;  -16.008;    5.000;    0.000;-21.00815
 313.62; -129.006;  -58.000;    0.000;-71.00561
 314.22;    9.993;  -13.000;    0.000;22.99338
 314.82;   65.992;   61.000;    0.000; 4.99164
 315.42;  -20.010;   36.000;    0.000;-56.01010
 316.02;   13.991;   -7.000;    0.000;20.99139
 316.62;  -19.012;  -24.000;    0.000; 4.98847
 317.22;  -35.010;  -92.000;    0.000;56.98957
 317.82;  -63.009;  -50.000;    0.000;-13.00943
 318.42;  263.994;  249.000;    0.000;14.99434
 319.01;  -41.010;  -62.000;    0.000;20.99029
 319.61;   20.990;    1.000;    0.000;19.98952
 320.21;  -22.010;  -35.000;    0.000;12.99046
 320.81;   50.987;  -28.000;    0.000;78.98656
 321.41;   93.994;   44.000;    0.000;49.99392
 322.01;  -42.008;  -88.000;    0.000;45.99152
 322.61;  -50.012;  -28.000;    0.000;-22.01220
 323.21;  -57.010;  -89.000;    0.000;31.98983
 323.80;  -79.010;  -97.000;    0.000;17.99027
 324.40;  -35.015;  -59.000;    0.000;23.98513
 325.00;  -53.013; -107.000;    0.000;53.98736
 325.60;    0.988;  -35.000;    0.000;35.98763
 326.20;    2.989;  -35.000;    0.000;37.98881
 326.80;  -83.013; -100.000;    0.000;16.98716
 327.40;  -30.016;  -32.000;    0.000; 1.98448
 327.99;   -8.019;  -29.000;    0.000;20.98091
 328.59;  -14.020;  -38.000;    0.000;23.98007
 329.19;  349.978;  305.000;    0.000;44.97800
 329.79;  -56.022;   19.000;    0.000;-75.02162
 330.39;   94.977;   73.000;    0.000;21.97713
 330.99; -108.022;    5.000;    0.000;-113.02168
 331.58;  -51.025;  -52.000;    0.000; 0.97517
 332.18;  -41.028;  -58.000;    0.000;16.97227
 332.78;   27.971;   34.000;    0.000;-6.02855
 333.38;   44.968;   66.000;    0.000;-21.03181
 333.98; -104.030;  -73.000;    0.000;-31.02982
 334.57;    1.969;   -5.000;    0.000; 6.96869
 335.17;   25.970;  -62.000;    0.000;87.97044
 335.77;   59.972;   28.000;    0.000;31.97187
 336.37;  142.969;  122.000;    0.000;20.96889
 336.97;  -36.026;  -45.000;    0.000; 8.97435
 337.56;  -43.027;  -84.000;    0.000;40.97287
 338.16;   52.974;  -12.000;    0.000;64.97410
 338.76;   35.979;   17.000;    0.000;18.97933
 339.36;  -85.023;  -66.000;    0.000;-19.02320
 339.96;   37.978;   26.000;    0.000;11.97796
 340.55;   37.978;   11.000;    0.000;26.97827
 341.15;  -45.022;  -31.000;    0.000;-14.02211
 341.75;   73.975;   58.000;    0.000;15.97475
 342.35;   -6.025;  -92.000;    0.000;85.97457
 342.94;  -13.032;   74.000;    0.000;-87.03182
 343.54;   10.973;    6.000;    0.000; 4.97293
 344.14;  -87.028;  -74.000;    0.000;-13.02756
 344.74;    6.970;   -4.000;    0.000;10.97026
 345.33;   60.974;   25.000;    0.000;35.97392
 345.93;    9.974;   -4.000;    0.000;13.97402
 346.53;  -67.023;  -50.000;    0.000;-17.02315
 347.13;  -69.024;  -44.000;    0.000;-25.02437
 347.72;  -71.028;  -39.000;    0.000;-32.02802
 348.32;   -1.024;  -35.000;    0.000;33.97625
 348.92;   50.975;   17.000;    0.000;33.97470
 349.52;   14.974;  -58.000;    0.000;72.97390
 350.11;   52.974;   81.000;    0.000;-28.02649
 350.71;  -77.024;  -35.000;    0.000;-42.02414
 351.31;   14.977;  -22.000;    0.000;36.97700
 351.91;  -38.023;  -95.000;    0.000;56.97672
 352.50;   30.976;  -34.000;    0.000;64.97637
 353.10;    6.976;   -9.000;    0.000;15.97571
 353.70;   40.979;  -52.000;    0.000;92.97937
 354.29;  351.975;  362.000;    0.000;-10.02460
 354.89;   42.972;  -56.000;    0.000;98.97227
 355.49;  -74.021;  -92.000;    0.000;17.97869
 356.09;   48.973;   13.000;    0.000;35.97321
 356.68;  -53.023;  -59.000;    0.000; 5.97652
 357.28;  -56.028;  -46.000;    0.000;-10.02847
 357.88;   -4.028;  -53.000;    0.000;48.97217
 358.47;  -85.025;  -81.000;    0.000;-4.02498
 359.07;   14.977;   51.000;    0.000;-36.02345
 359.67;  -41.024;  -42.000;    0.000; 0.97604
 360.26;  -34.024;  -26.000;    0.000;-8.02431
 360.86;  -28.026;   -7.000;    0.000;-21.02631
 361.46;   21.979;    6.000;    0.000;15.97879
 362.05;  -19.026;    1.000;    0.000;-20.02619
 362.65;   29.978;  -40.000;    0.000;69.97846
 363.25;  -57.022;  -50.000;    0.000;-7.02158
 363.84;  -68.021;   -1.000;    0.000;-67.02129
 364.44;  -27.023;    0.000;    0.000;-27.02298
 365.04;  -33.023;  -21.000;    0.000;-12.02329
 365.63;  -63.023;  -71.000;    0.000; 7.97738
 366.23;  -32.021;  -16.000;    0.000;-16.02116
 366.83;  -28.023;  -53.000;    0.000;24.97741
 367.42;   -9.025;  -95.000;    0.000;85.97502
 368.02;  -71.023; -107.000;    0.000;35.97727
 368.62;    6.975;   33.000;    0.000;-26.02548
 369.21;    5.975;    3.000;    0.000; 2.97494
 369.81;  251.976;  192.000;    0.000;59.97550
 370.41;  -19.018;  -42.000;    0.000;22.98158
 371.00;  -75.028;  -23.000;    0.000;-52.02798
 371.60;  -63.027;  -24.000;    0.000;-39.02692
 372.19;  -35.024;  -20.000;    0.000;-15.02434
 372.79;  -64.021;  -29.000;    0.000;-35.02079
 373.39;    4.978;    2.000;    0.000; 2.97765
 373.98;  -30.025;  -16.000;    0.000;-14.02547
 374.58;  -63.023;   37.000;    0.000;-100.02338
 375.17;  -56.030;  -37.000;    0.000;-19.02952
 375.77;   95.974;   34.000;    0.000;61.97439
 376.37;  -70.026;  -56.000;    0.000;-14.02602
 376.96;  100.974;   -3.000;    0.000;103.97444
 377.56;   43.977;   -8.000;    0.000;51.97707
 378.15;   55.976;  -24.000;    0.000;79.97647
 378.75;    5.974;  -24.000;    0.000;29.97427
 379.35;  -23.025;  -23.000;    0.000;-0.02515
 379.94;    1.973;  -18.000;    0.000;19.97346
 380.54;  -22.028;  -33.000;    0.000;10.97245
 381.13;  -38.026;  -35.000;    0.000;-3.02578
 381.73;   20.979;  -63.000;    0.000;83.97862
 382.32;  -56.020;  -68.000;    0.000;11.98038
 382.92;  -91.025;  -78.000;    0.000;-13.02526
 383.52;   18.976;  -47.000;    0.000;65.97646
 384.11;  -31.025;   -3.000;    0.000;-28.02536
 384.71;  -26.028;    4.000;    0.000;-30.02768
 385.30;  -20.027;  -25.000;    0.000; 4.97324
 385.90;   35.975;   20.000;    0.000;15.97494
 386.49;    7.973;  -25.000;    0.000;32.97278
 387.09;   33.972;   48.000;    0.000;-14.02822
 387.68;  -29.024;   13.000;    0.000;-42.02414
 388.28;  -80.024; -103.000;    0.000;22.97562
 388.87;  331.979;  171.000;    0.000;160.97899
 389.47;   13.973;  -41.000;    0.000;54.97269
 390.07;   26.975;  -11.000;    0.000;37.97475
 390.66;  -25.023;  -38.000;    0.000;12.97675
 391.26;  -80.027;  -43.000;    0.000;-37.02653
 391.85;   21.974;  -41.000;    0.000;62.97444
 392.45;  -49.026;  -16.000;    0.000;-33.02614
 393.04;  -63.022;   -6.000;    0.000;-57.02227
 393.64;  -30.023;  -90.000;    0.000;59.97660
 394.23;  -38.025;   -6.000;    0.000;-32.02502
 394.83;  -91.023;  -38.000;    0.000;-53.02338
 395.42;   28.971;    9.000;    0.000;19.97085
 396.02;    4.977;    4.000;    0.000; 0.97730
 396.61;  -33.028;  -70.000;    0.000;36.97203
 397.21;  -17.025;   12.000;    0.000;-29.02519
 397.80;12005.975;10838.000;    0.000;1167.97546
 398.40;   90.975;   49.000;    0.000;41.97489
 398.99;  -20.025;  -25.000;    0.000; 4.97502
 399.59;  -20.027;    6.000;    0.000;-26.02717
 400.18;  -23.025;  -27.000;    0.000; 3.97536
 400.78;  -63.024;  -36.000;    0.000;-27.02425
 401.37;  -65.021;  -24.000;    0.000;-41.02118
 401.96;  -48.026;  -38.000;    0.000;-10.02600
 402.56; -100.024;  -72.000;    0.000;-28.02426
 403.15;   12.975;  -21.000;    0.000;33.97546
 403.75;   19.978;   51.000;    0.000;-31.02236
 404.34;  -28.026;   -3.000;    0.000;-25.02572
 404.94;  -80.025;  -60.000;    0.000;-20.02515
 405.53;  -88.026; -133.000;    0.000;44.97365
 406.13;  -50.027;  -27.000;    0.000;-23.02687
 406.72;  -58.022;  -42.000;    0.000;-16.02177
 407.32;  -84.025;  -46.000;    0.000;-38.02504
 407.91;   35.976;  -31.000;    0.000;66.97576
 408.50;  -32.020;  -49.000;    0.000;16.97973
 409.10;  -23.024;  -61.000;    0.000;37.97579
 409.69;   78.978;   36.000;    0.000;42.97789
 410.29;  -42.023;  -50.000;    0.000; 7.97732
 410.88;  -54.024;  -26.000;    0.000;-28.02403
 411.47;  -44.022;  -70.000;    0.000;25.97753
 412.07;  -58.023;  -45.000;    0.000;-13.02253
 412.66;   15.977;  -15.000;    0.000;30.97728
 413.26;  -41.021;  -70.000;    0.000;28.97851
 413.85;  -61.021;  -76.000;    0.000;14.97895
 414.45;  111.976;  114.000;    0.000;-2.02383
 415.04;  -87.021;  -72.000;    0.000;-15.02129
 415.63;  -12.024;   24.000;    0.000;-36.02386
 416.23;  -18.024;  -50.000;    0.000;31.97609
 416.82;   46.975;  -35.000;    0.000;81.97527
 417.41;   21.980;   -4.000;    0.000;25.98009
 418.01;   -0.023;  -43.000;    0.000;42.97669
 418.60;   17.975; -105.000;    0.000;122.97504
 419.20;  -83.022;    6.000;    0.000;-89.02240
 419.79;  -60.021;   -5.000;    0.000;-55.02108
 420.38;  -65.022;  -41.000;    0.000;-24.02198
 420.98; -100.021;  -81.000;    0.000;-19.02101
 421.57;  -43.023;  -67.000;    0.000;23.97714
 422.16;  -41.020;  -32.000;    0.000;-9.01968
 422.76;  -52.019;  -65.000;    0.000;12.98056
 423.35;  -60.022;  -70.000;    0.000; 9.97816
 423.94;   89.980;   79.000;    0.000;10.98006
 424.54;   46.981;   -5.000;    0.000;51.98108
 425.13;  102.976;   53.000;    0.000;49.97641
 425.73;    7.979;   14.000;    0.000;-6.02069
 426.32;  -12.022;  -36.000;    0.000;23.97798
 426.91;   18.981;   -4.000;    0.000;22.98132
 427.51;    2.982;  121.000;    0.000;-118.01767
 428.10;   97.980;   51.000;    0.000;46.98040
 428.69;  -54.020;  -28.000;    0.000;-26.01978
 429.28;  -64.023;  -59.000;    0.000;-5.02346
 429.88;  -17.021;  -39.000;    0.000;21.97850
 430.47;  -24.018;   -3.000;    0.000;-21.01782
 431.06;  -11.020;   15.000;    0.000;-26.01965
 431.66;  -51.019;  -27.000;    0.000;-24.01868
 432.25;  -92.020;  -82.000;    0.000;-10.01962
 432.84;  -70.017;  -63.000;    0.000;-7.01710
 433.44;  -42.022;   -6.000;    0.000;-36.02184
 434.03;  -83.017;  -76.000;    0.000;-7.01725
 434.62;   17.981;   36.000;    0.000;-18.01947
 435.22;  -36.014;   40.000;    0.000;-76.01424
 435.81;  -49.019;   -6.000;    0.000;-43.01860
 436.40;  -95.016;  -40.000;    0.000;-55.01634
 436.99;  -72.019;  -61.000;    0.000;-11.01942
 437.59;  -23.019;  -33.000;    0.000; 9.98144
 438.18;   79.983;   -5.000;    0.000;84.98323
 438.77;  -52.016; -102.000;    0.000;49.98368
 439.36;  -66.019;  -83.000;    0.000;16.98076
 439.96;  -20.015;  118.000;    0.000;-138.01454
 440.55;  -72.018;  -89.000;    0.000;16.98216
 441.14;   -8.016;    6.000;    0.000;-14.01645
 441.73;   43.978;   80.000;    0.000;-36.02196
 442.33;  -73.020;   -9.000;    0.000;-64.02019
 442.92;   41.985;   76.000;    0.000;-34.01534
 443.51;  -12.018;   16.000;    0.000;-28.01791
 444.10;   -6.019;   52.000;    0.000;-58.01904
 444.70;  -66.015;  -33.000;    0.000;-33.01514
 445.29;  -81.020;  -23.000;    0.000;-58.02012
 445.88;  -93.018;   -3.000;    0.000;-90.01850
 446.47;  -10.015;   41.000;    0.000;-51.01511
 447.07;  -61.016;  -17.000;    0.000;-44.01588
 447.66;  -21.019;   63.000;    0.000;-84.01904
 448.25;   35.983;   11.000;    0.000;24.98322
 448.84;  -97.017;   38.000;    0.000;-135.01728
 449.43;  -47.013;   -7.000;    0.000;-40.01292
 450.03;  -29.021;   71.000;    0.000;-100.02137
 450.62;  -50.019;  -20.000;    0.000;-30.01947
 451.21;  -36.020;   35.000;    0.000;-71.02042
 451.80;  129.983;  118.000;    0.000;11.98298
 452.39;  -74.016;  -20.000;    0.000;-54.01583
 452.99;  -70.015;    6.000;    0.000;-76.01450
 453.58;  -81.015;   13.000;    0.000;-94.01499
 454.17;  -92.012;   -8.000;    0.000;-84.01161
 454.76;    6.987;   46.000;    0.000;-39.01321
 455.35;    4.985;   79.000;    0.000;-74.01470
 455.95;  -91.017;  -38.000;    0.000;-53.01697
 456.54; -110.013;  -59.000;    0.000;-51.01310
 457.13;  -12.017;    9.000;    0.000;-21.01653
 457.72;  -54.012;  -46.000;    0.000;-8.01200
 458.31; -144.013;  -63.000;    0.000;-81.01264
 458.90;   82.984;   84.000;    0.000;-1.01588
 459.50;  -45.017;  -32.000;    0.000;-13.01660
 460.09;  -84.018;  -27.000;    0.000;-57.01770
 460.68;  -87.015;  -60.000;    0.000;-27.01526
 461.27;    7.984;  -31.000;    0.000;38.98414
 461.86;   -3.014;  -21.000;    0.000;17.98565
 462.45;   -2.009;  -15.000;    0.000;12.99099
 463.04;  -24.016;  -58.000;    0.000;33.98376
 463.64;   24.989;   23.000;    0.000; 1.98915
 464.23;  -16.016;   12.000;    0.000;-28.01563
 464.82;  -27.014;   46.000;    0.000;-73.01400
 465.41;  -89.009;  -64.000;    0.000;-25.00888
 466.00;  -48.014;  -58.000;    0.000; 9.98607
 466.59;  -26.010;  -69.000;    0.000;42.99011
 467.18;    3.989;  -23.000;    0.000;26.98883
 467.77;  -74.013;  -52.000;    0.000;-22.01309
 468.37;  -78.016;  -55.000;    0.000;-23.01581
 468.96;  -62.016;  -18.000;    0.000;-44.01586
 469.55;    4.986;   10.000;    0.000;-5.01421
 470.14; -100.016; -112.000;    0.000;11.98433
 470.73;   30.983;  -19.000;    0.000;49.98279
 471.32;  -51.013;  -10.000;    0.000;-41.01317
 471.91;  -11.012;  -58.000;    0.000;46.98772
 472.50;  -34.018;  -38.000;    0.000; 3.98227
 473.09;  -14.010;  -33.000;    0.000;18.99016
 473.68;   94.983;   48.000;    0.000;46.98301
 474.27;  -37.011;  -48.000;    0.000;10.98938
 474.86;  -98.014;  -32.000;    0.000;-66.01376
 475.46;   70.988;  -48.000;    0.000;118.98805
 476.05;   86.988;   53.000;    0.000;33.98793
 476.64;  -84.011;  -33.000;    0.000;-51.01148
 477.23;  -91.013;  -57.000;    0.000;-34.01309
 477.82;  -53.012;  -11.000;    0.000;-42.01200
 478.41;  -29.012;  -55.000;    0.000;25.98810
 479.00;  -22.013;  -29.000;    0.000; 6.98696
 479.59;   45.985;  -43.000;    0.000;88.98488
 480.18;   -1.011;   20.000;    0.000;-21.01069
 480.77;  -99.011;  -90.000;    0.000;-9.01085
 481.36;  -50.011;  -27.000;    0.000;-23.01076
 481.95;  -31.013;  -15.000;    0.000;-16.01336
 482.54; -103.016;  -65.000;    0.000;-38.01613
 483.13;  -91.014;  -49.000;    0.000;-42.01366
 483.72;  -41.010;  -90.000;    0.000;48.99002
 484.31;  -75.012;  -68.000;    0.000;-7.01176
 484.90;  -21.011;  -57.000;    0.000;35.98865
 485.49; -144.008;  -55.000;    0.000;-89.00829
 486.08;    2.990;  -68.000;    0.000;70.98982
 486.67;   22.991;   30.000;    0.000;-7.00920
 487.26;   -5.009;  -49.000;    0.000;43.99055
 487.85; -121.012;  -51.000;    0.000;-70.01154
 488.44;  -60.014;  -63.000;    0.000; 2.98638
 489.03;    4.989;  -15.000;    0.000;19.98939
 489.62;   15.991;  -58.000;    0.000;73.99071
 490.21;  -57.011; -101.000;    0.000;43.98906
 490.80;  -40.010;   31.000;    0.000;-71.00956
 491.39;  -20.011;  -76.000;    0.000;55.98902
 491.98;    6.990;   43.000;    0.000;-36.00997
 492.57;   -4.008;   66.000;    0.000;-70.00768
 493.16;  -20.013;  -30.000;    0.000; 9.98738
 493.75;   15.988;  -45.000;    0.000;60.98762
 494.34;    9.988;   11.000;    0.000;-1.01158
 494.93;  -81.009;  -35.000;    0.000;-46.00857
 495.52;  -84.013;  -56.000;    0.000;-28.01263
 496.11;  -76.012;  -64.000;    0.000;-12.01218
 496.70;  -34.015;  -16.000;    0.000;-18.01542
 497.29;  -63.012;  -15.000;    0.000;-48.01188
 497.88;  -22.011;   11.000;    0.000;-33.01082
 498.47;   45.989;   47.000;    0.000;-1.01052
 499.06;   13.987;   57.000;    0.000;-43.01258
 499.64;  -67.010;   -9.000;    0.000;-58.01004
 500.23;  -19.012;   33.000;    0.000;-52.01167
 500.82;  -47.011;  -15.000;    0.000;-32.01124
 501.41;   38.986;   66.000;    0.000;-27.01372
 502.00;  -17.012;  -28.000;    0.000;10.98757
 502.59;   14.989;   24.000;    0.000;-9.01094
 503.18;  -60.011;  -20.000;    0.000;-40.01144
 503.77; -103.011;   41.000;    0.000;-144.01138
 504.36;   62.989;    2.000;    0.000;60.98930
 504.95;  -76.011;  -17.000;    0.000;-59.01112
 505.54;  -85.012;   31.000;    0.000;-116.01179
 506.12;   45.989;  195.000;    0.000;-149.01135
 506.71; -106.011;   38.000;    0.000;-144.01132
 507.30;  -68.014;  104.000;    0.000;-172.01429
 507.89;  -40.014;   31.000;    0.000;-71.01421
 508.48;  -90.010;   76.000;    0.000;-166.01032
 509.07;  -15.016;   53.000;    0.000;-68.01556
 509.66;  -23.010;   94.000;    0.000;-117.01001
 510.25; -134.014;   33.000;    0.000;-167.01400
 510.84;  -52.013;   78.000;    0.000;-130.01251
 511.42;  -93.011;   15.000;    0.000;-108.01148
 512.01;   94.994;  199.000;    0.000;-104.00595
 512.60;  -28.012;  102.000;    0.000;-130.01226
 513.19;  -47.013;  133.000;    0.000;-180.01262
 513.78;  -68.013;  122.000;    0.000;-190.01318
 514.37;   -6.010;  162.000;    0.000;-168.00996
 514.95;   -5.008;  123.000;    0.000;-128.00810
 515.54;   53.989;  118.000;    0.000;-64.01085
 516.13;  -98.012;  102.000;    0.000;-200.01226
 516.72;  -10.010;  180.000;    0.000;-190.01026
 517.31;  -23.010;  170.000;    0.000;-193.01001
 517.90;  -86.009;   74.000;    0.000;-160.00942
 518.48;  -97.010;  128.000;    0.000;-225.01047
 519.07;    4.987;  176.000;    0.000;-171.01289
 519.66;   44.991;  219.000;    0.000;-174.00879
 520.25;  -81.010;  104.000;    0.000;-185.00956
 520.84;    4.988;  170.000;    0.000;-165.01157
 521.43;   45.991;  191.000;    0.000;-145.00913
 522.01;   69.991;  269.000;    0.000;-199.00931
 522.60;   30.989;  202.000;    0.000;-171.01072
 523.19;  -57.010;  165.000;    0.000;-222.01015
 523.78;  -63.012;  220.000;    0.000;-283.01169
 524.37;  -13.013;  153.000;    0.000;-166.01313
 524.95;  -33.009;  181.000;    0.000;-214.00862
 525.54;  -53.012;  152.000;    0.000;-205.01178
 526.13;  -78.011;  141.000;    0.000;-219.01108
 526.72;    9.993;  151.000;    0.000;-141.00668
 527.30;   11.991;  121.000;    0.000;-109.00908
 527.89;  -77.012;  108.000;    0.000;-185.01193
 528.48;  -84.009;  133.000;    0.000;-217.00869
 529.07;  -29.011;  124.000;    0.000;-153.01142
 529.65;   40.992;  240.000;    0.000;-199.00786
 530.24;   11.988;  140.000;    0.000;-128.01150
 530.83;  -66.008;   69.000;    0.000;-135.00825
 531.42;  -42.009;  184.000;    0.000;-226.00917
 532.00;  -16.010;  159.000;    0.000;-175.01044
 532.59;   -4.007;  153.000;    0.000;-157.00689
 533.18;   11.993;  113.000;    0.000;-101.00705
 533.77;  144.989;  206.000;    0.000;-61.01083
 534.35;  -29.009;  155.000;    0.000;-184.00937
 534.94;  -40.009;   77.000;    0.000;-117.00910
 535.53;   -6.007;  109.000;    0.000;-115.00660
 536.12;  -50.012;   68.000;    0.000;-118.01200
 536.70;  -55.006;   98.000;    0.000;-153.00610
 537.29;  -19.008;   71.000;    0.000;-90.00804
 537.88;    7.992;  103.000;    0.000;-95.00797
 538.46;  -65.010;   40.000;    0.000;-105.00986
 539.05;  -63.008;   43.000;    0.000;-106.00782
 539.64;  -20.006;   68.000;    0.000;-88.00634
 540.23;  -21.009;  108.000;    0.000;-129.00884
 540.81;   57.993;  163.000;    0.000;-105.00709
 541.40;  -28.011;   45.000;    0.000;-73.01148
 541.99;  -88.009;   -1.000;    0.000;-87.00884
 542.57;  -18.008;   49.000;    0.000;-67.00799
 543.16;  -89.010;   39.000;    0.000;-128.01026
 543.75;  -19.005;   56.000;    0.000;-75.00525
 544.33;  -14.008;   44.000;    0.000;-58.00812
 544.92;    5.995;   90.000;    0.000;-84.00545
 545.51;  -47.009;   86.000;    0.000;-133.00852
 546.09;   35.990;  104.000;    0.000;-68.01005
 546.68;   97.990;  103.000;    0.000;-5.00969
 547.27;   16.994;   33.000;    0.000;-16.00639
 547.85;  -49.007;   42.000;    0.000;-91.00722
 548.44;  -13.006;  -18.000;    0.000; 4.99392
 549.03;   -4.006;   41.000;    0.000;-45.00575
 549.61;  -33.010;    8.000;    0.000;-41.01001
 550.20;   -0.007;   40.000;    0.000;-40.00697
 550.78;   95.991;   70.000;    0.000;25.99137
 551.37;   38.996;   74.000;    0.000;-35.00360
 551.96;  -32.006;   59.000;    0.000;-91.00550
 552.54;  -21.012;   13.000;    0.000;-34.01231
 553.13;  -16.009;  -15.000;    0.000;-1.00950
 553.72;   53.992;   -2.000;    0.000;55.99196
 554.30;  117.996;   56.000;    0.000;61.99619
 554.89;   89.996;  -13.000;    0.000;102.99596
 555.47;   65.993;   17.000;    0.000;48.99293
 556.06;   51.991;   76.000;    0.000;-24.00900
 556.65;   74.993;   68.000;    0.000; 6.99252
 557.23;   66.992;   47.000;    0.000;19.99217
 557.82;   28.994;   10.000;    0.000;18.99421
 558.40;   32.993;  -50.000;    0.000;82.99289
 558.99;  103.988;    5.000;    0.000;98.98792
 559.58;   66.990;   61.000;    0.000; 5.99049
 560.16;  107.988;  -38.000;    0.000;145.98822
 560.75;   75.990;   34.000;    0.000;41.98976
 561.33;  242.993;   86.000;    0.000;156.99281
 561.92;  123.990;    2.000;    0.000;121.99037
 562.50;  235.993;   27.000;    0.000;208.99345
 563.09;  181.992;  -14.000;    0.000;195.99209
 563.68;  197.993;   -4.000;    0.000;201.99265
 564.26;  220.991;   14.000;    0.000;206.99139
 564.85;  225.992;   10.000;    0.000;215.99223
 565.43;  315.991;   -1.000;    0.000;316.99116
 566.02;  210.992;   -6.000;    0.000;216.99171
 566.60;  328.994;  -17.000;    0.000;345.99379
 567.19;  348.991;  -22.000;    0.000;370.99109
 567.77;  384.996;   -8.000;    0.000;392.99561
 568.36;  433.995;   18.000;    0.000;415.99485
 568.94;  388.993;  -28.000;    0.000;416.99324
 569.53;  582.993;   12.000;    0.000;570.99272
 570.11;  541.996;   -8.000;    0.000;549.99594
 570.70;  550.993;  -41.000;    0.000;591.99327
 571.28;  590.989;  -30.000;    0.000;620.98889
 571.87;  546.996;  -55.000;    0.000;601.99593
 572.45;  726.994;   23.000;    0.000;703.99418
 573.04;  704.990;  -31.000;    0.000;735.98969
 573.62;  754.993;  -35.000;    0.000;789.99342
 574.21;  935.993;   84.000;    0.000;851.99264
 574.79;  990.988;   12.000;    0.000;978.98837
 575.38; 1037.993;  -88.000;    0.000;1125.99331
 575.96; 1103.996;  -28.000;    0.000;1131.99577
 576.55; 1183.994;  -45.000;    0.000;1228.99441
 577.13; 1329.995;   15.000;    0.000;1314.99540
 577.72; 1421.994;  -31.000;    0.000;1452.99387
 578.30; 1528.992;  -37.000;    0.000;1565.99162
 578.89; 1633.996;  -59.000;    0.000;1692.99614
 579.47; 1903.992;  -15.000;    0.000;1918.99189
 580.06; 2066.990;   58.000;    0.000;2008.99017
 580.64; 2034.994;   -2.000;    0.000;2036.99350
 581.23; 2330.993;  -42.000;    0.000;2372.99342
 581.81; 2588.992;  142.000;    0.000;2446.99214
 582.39; 2777.994;  -47.000;    0.000;2824.99371
 582.98; 2810.990;  -50.000;    0.000;2860.99008
 583.56; 3053.989;   -2.000;    0.000;3055.98919
 584.15; 3328.992;   10.000;    0.000;3318.99151
 584.73; 3614.989;   12.000;    0.000;3602.98947
 585.32; 3792.992;   18.000;    0.000;3774.99159
 585.90; 4405.990;  154.000;    0.000;4251.98960
 586.48; 4200.993;  -22.000;    0.000;4222.99260
 587.07; 4486.993;  -12.000;    0.000;4498.99291
 587.65; 4770.993;   31.000;    0.000;4739.99286
 588.24; 5020.994;  -42.000;    0.000;5062.99363
 588.82; 5362.993;  -40.000;    0.000;5402.99312
 589.41; 6958.994; 1798.000;    0.000;5160.99416
 589.99; 5754.991;  -29.000;    0.000;5783.99101
 590.57; 5755.995;  -60.000;    0.000;5815.99534
 591.16; 5985.991;   94.000;    0.000;5891.99066
 591.74; 6005.993;   29.000;    0.000;5976.99331
 592.32; 6004.994;   18.000;    0.000;5986.99441
 592.91; 5977.990;   14.000;    0.000;5963.99042
 593.49; 5845.995;  -59.000;    0.000;5904.99456
 594.08; 5868.991;  -36.000;    0.000;5904.99127
 594.66; 5814.994;  -12.000;    0.000;5826.99431
 595.24; 5544.995;   -2.000;    0.000;5546.99477
 595.83; 5276.992;  -48.000;    0.000;5324.99228
 596.41; 5010.997;  -11.000;    0.000;5021.99678
 596.99; 4643.995;   49.000;    0.000;4594.99489
 597.58; 4495.994;   -5.000;    0.000;4500.99405
 598.16; 4159.989;   60.000;    0.000;4099.98945
 598.74; 4066.994;   41.000;    0.000;4025.99365
 599.33; 3486.992;  -18.000;    0.000;3504.99184
 599.91; 3249.991;  -61.000;    0.000;3310.99125
 600.49; 2977.990;  -31.000;    0.000;3008.99032
 601.08; 2899.995;   73.000;    0.000;2826.99458
 601.66; 2728.994;  -16.000;    0.000;2744.99431
 602.24; 2315.995; -102.000;    0.000;2417.99523
 602.83; 2166.995;  -55.000;    0.000;2221.99502
 603.41; 2110.994;  -11.000;    0.000;2121.99445
 603.99; 1923.986;  -52.000;    0.000;1975.98636
 604.58; 1700.994;  -11.000;    0.000;1711.99355
 605.16; 1689.992;  -26.000;    0.000;1715.99210
 605.74; 1529.993;  -59.000;    0.000;1588.99331
 606.33; 1454.994;  -34.000;    0.000;1488.99400
 606.91; 1255.991;  -21.000;    0.000;1276.99112
 607.49; 1133.992;  -58.000;    0.000;1191.99205
 608.07; 1100.995;  -48.000;    0.000;1148.99469
 608.66;  868.994;  -68.000;    0.000;936.99399
 609.24;  795.994;   16.000;    0.000;779.99427
 609.82;  783.993;  -69.000;    0.000;852.99270
 610.41;  700.993;  -58.000;    0.000;758.99293
 610.99;  541.994;  -97.000;    0.000;638.99375
 611.57;  640.996;  -33.000;    0.000;673.99607
 612.15;  459.993;   15.000;    0.000;444.99294
 612.74;  575.996;   74.000;    0.000;501.99612
 613.32;  463.993;  -30.000;    0.000;493.99321
 613.90;  366.994;   42.000;    0.000;324.99405
 614.48;  275.992;   -3.000;    0.000;278.99227
 615.07;  283.990;  -48.000;    0.000;331.98962
 615.65;  187.997;  -30.000;    0.000;217.99704
 616.23;  257.993;  -48.000;    0.000;305.99325
 616.81;  174.988;  -18.000;    0.000;192.98833
 617.40;  145.986;  -13.000;    0.000;158.98555
 617.98;  135.983;   -7.000;    0.000;142.98298
 618.56;    7.989;    0.000;    0.000; 7.98927
 619.14;   58.988;  -47.000;    0.000;105.98755
 619.72;   71.988;  -76.000;    0.000;147.98771
 620.31;  182.990;    9.000;    0.000;173.99046
 620.89;  161.992;   -9.000;    0.000;170.99206
 621.47;   -2.008;  -51.000;    0.000;48.99155
 622.05;   35.992;  -29.000;    0.000;64.99215
 622.63;  -16.010;  -33.000;    0.000;16.99007
 623.22;   19.995;  -65.000;    0.000;84.99497
 623.80;  -39.010;    7.000;    0.000;-46.01040
 624.38;  186.993;   71.000;    0.000;115.99311
 624.96;  -16.010;  -75.000;    0.000;58.99008
 625.54;  -12.009;  -66.000;    0.000;53.99086
 626.13;  -44.006;  -17.000;    0.000;-27.00555
 626.71;  348.992;  218.000;    0.000;130.99198
 627.29;   -1.013;  -33.000;    0.000;31.98690
 627.87;   21.992;  -49.000;    0.000;70.99171
 628.45;  -26.008;  -64.000;    0.000;37.99206
 629.03;   55.991;   18.000;    0.000;37.99091
 629.62; -100.009;  -58.000;    0.000;-42.00939
 630.20; -100.009; -100.000;    0.000;-0.00899
 630.78;  -55.007;  -39.000;    0.000;-16.00721
 631.36;   -9.011;  -65.000;    0.000;55.98914
 631.94;  -26.007;  -40.000;    0.000;13.99315
 632.52;    5.994;  -14.000;    0.000;19.99413
 633.10;   -0.011;  -27.000;    0.000;26.98919
 633.68;  -39.010;  -43.000;    0.000; 3.99000
 634.27;  -55.009;  -35.000;    0.000;-20.00926
 634.85;   10.990;  -31.000;    0.000;41.98962
 635.43;  -39.013; -126.000;    0.000;86.98651
 636.01;  -68.008;  -31.000;    0.000;-37.00791
 636.59;  -54.009;  -66.000;    0.000;11.99137
 637.17;    8.985;  -57.000;    0.000;65.98455
 637.75;  -45.011;  -68.000;    0.000;22.98880
 638.33;    0.988;  -62.000;    0.000;62.98846
 638.91;  -26.010;  -34.000;    0.000; 7.98952
 639.50;  -25.014;  -40.000;    0.000;14.98609
 640.08;  -56.010;  -83.000;    0.000;26.99029
 640.66;  -56.010;  -41.000;    0.000;-15.00969
 641.24;  -14.010;   46.000;    0.000;-60.00966
 641.82;  -29.010;   10.000;    0.000;-39.00964
 642.40;   44.990;  -41.000;    0.000;85.99038
 642.98;  -56.010;  -95.000;    0.000;38.99041
 643.56;  -18.010;  -25.000;    0.000; 6.99043
 644.14;  -91.010;  -68.000;    0.000;-23.00954
 644.72;  -19.010;   -4.000;    0.000;-15.00952
 645.30;   -1.009;  -28.000;    0.000;26.99050
 645.88; -126.009;  -24.000;    0.000;-102.00947
 646.46;  -39.009;  -24.000;    0.000;-15.00945
 647.04; -112.009;  -61.000;    0.000;-51.00943
 647.62;   52.991;   47.000;    0.000; 5.99060
 648.20;  -11.009;    1.000;    0.000;-12.00938
 648.78;  -19.009;   11.000;    0.000;-30.00935
 649.36;  -92.009;  -47.000;    0.000;-45.00933
 649.94;  -56.009; -112.000;    0.000;55.99069
 650.52; -116.009;  -65.000;    0.000;-51.00928
 651.11;  -35.009;  -47.000;    0.000;11.99074
 651.69;  -66.009;  -41.000;    0.000;-25.00924
 652.27;   15.991;  -11.000;    0.000;26.99079
 652.85; -136.009;  -45.000;    0.000;-91.00919
 653.43;  -72.009;  -24.000;    0.000;-48.00916
 654.01; -116.009;  -58.000;    0.000;-58.00914
 654.59;  -67.009;  -52.000;    0.000;-15.00912
 655.17;  -90.009;  -14.000;    0.000;-76.00909
 655.74;  -48.009;  -58.000;    0.000; 9.99093
 656.32;  -40.009;  -67.000;    0.000;26.99096
 656.90;  -36.009;  -24.000;    0.000;-12.00902
 657.48;   25.991;   67.000;    0.000;-41.00900
 658.06;  -69.009;  -68.000;    0.000;-1.00897
 658.64;  -22.009;  -44.000;    0.000;21.99105
 659.22; -148.009;  -19.000;    0.000;-129.00893
 659.80;  -74.009;  -57.000;    0.000;-17.00890
 660.38;  -59.009; -114.000;    0.000;54.99112
 660.96;  -87.009; -123.000;    0.000;35.99115
 661.54; -105.009;  -45.000;    0.000;-60.00883
 662.12;  -84.009;  -68.000;    0.000;-16.00881
 662.70;  -39.009;  -94.000;    0.000;54.99122
 663.28;  -76.009; -106.000;    0.000;29.99124
 663.86;  -29.009;   -5.000;    0.000;-24.00874
 664.44;    0.991;  -65.000;    0.000;65.99129
 665.02;  -50.009;  -11.000;    0.000;-39.00869
 665.60;  -20.009;  -20.000;    0.000;-0.00866
 666.18;    7.991;  -24.000;    0.000;31.99136
 666.75;   10.991;   73.000;    0.000;-62.00862
 667.33;  -97.009;  -44.000;    0.000;-53.00859
 667.91;   92.991;  134.000;    0.000;-41.00857
 668.49;   25.991;   21.000;    0.000; 4.99146
 669.07;   -8.009;  -27.000;    0.000;18.99148
 669.65;  -48.008;  -49.000;    0.000; 0.99150
 670.23;  -31.008;  -75.000;    0.000;43.99153
 670.81;  -27.008;  -18.000;    0.000;-9.00845
 671.39;  -99.008; -128.000;    0.000;28.99157
 671.97;  -40.008;  -47.000;    0.000; 6.99160
 672.54;  -24.008;   11.000;    0.000;-35.00838
 673.12;  -47.008;   -1.000;    0.000;-46.00835
 673.70;  -18.008;  -22.000;    0.000; 3.99167
 674.28;   -9.008;   19.000;    0.000;-28.00831
 674.86;  -36.008;  -70.000;    0.000;33.99172
 675.44;  -56.008;  -36.000;    0.000;-20.00826
 676.02;  -42.008;    3.000;    0.000;-45.00824
 676.59;  -27.008;   34.000;    0.000;-61.00821
 677.17;  -23.008;    1.000;    0.000;-24.00819
 677.75;  -24.008;  -62.000;    0.000;37.99184
 678.33; -122.008;  -83.000;    0.000;-39.00814
 678.91; -103.008;  -44.000;    0.000;-59.00812
 679.49;  -30.008;  -14.000;    0.000;-16.00809
 680.06;  -55.008;  -71.000;    0.000;15.99193
 680.64; -110.008;  -38.000;    0.000;-72.00804
 681.22;  -87.008;  -21.000;    0.000;-66.00802
 681.80;  -14.008;  -83.000;    0.000;68.99200
 682.38;  -31.008;  -44.000;    0.000;12.99203
 682.96;  -20.008;  -10.000;    0.000;-10.00795
 683.53;  -29.008;   12.000;    0.000;-41.00793
 684.11;   -6.008;    9.000;    0.000;-15.00790
 684.69;  -95.008; -121.000;    0.000;25.99212
 685.27;   91.992;   29.000;    0.000;62.99215
 685.85;  -56.008;  -30.000;    0.000;-26.00783
 686.42; -103.008;  -51.000;    0.000;-52.00781
 687.00;  -43.008;  -37.000;    0.000;-6.00778
 687.58;   -0.008;  -45.000;    0.000;44.99224
 688.16; -100.008;  -65.000;    0.000;-35.00774
 688.73;  -60.008;  -66.000;    0.000; 5.99229
 689.31;   46.992;  -23.000;    0.000;69.99231
 689.89;  -30.008;  -35.000;    0.000; 4.99234
 690.47;   39.992;   34.000;    0.000; 5.99236
 691.04;  -38.008;  -65.000;    0.000;26.99238
 691.62;  -12.008;  -42.000;    0.000;29.99241
 692.20;  -95.008;  -92.000;    0.000;-3.00757
 692.78;   16.992;  -33.000;    0.000;49.99245
 693.35;   -6.008;   -6.000;    0.000;-0.00752
 693.93;  -43.007;  -44.000;    0.000; 0.99250
 694.51;  -38.007;  -94.000;    0.000;55.99253
 695.09;  -59.007;  -77.000;    0.000;17.99255
 695.66; -124.007;  -89.000;    0.000;-35.00743
 696.24;  -41.007; -118.000;    0.000;76.99260
 696.82;  -58.007; -107.000;    0.000;48.99262
 697.39; -109.007;  -92.000;    0.000;-17.00735
 697.97;  -70.007;  -15.000;    0.000;-55.00733
 698.55;  -16.007;  -44.000;    0.000;27.99269
 699.13;  -59.007;  -84.000;    0.000;24.99272
 699.70;  -53.007;  -95.000;    0.000;41.99274
 700.28;  -73.007;  -67.000;    0.000;-6.00724
 700.86; -103.007;  -75.000;    0.000;-28.00721
 701.43;  -88.007;  -49.000;    0.000;-39.00719
 702.01;  -11.007;  -51.000;    0.000;39.99284
 702.59;  -67.007;  -48.000;    0.000;-19.00714
 703.16; -102.007; -107.000;    0.000; 4.99288
 703.74;  -52.007;  -48.000;    0.000;-4.00709
 704.32;   -4.007;    4.000;    0.000;-8.00707
 704.89; -110.007;  -66.000;    0.000;-44.00705
 705.47;  -83.007;  -85.000;    0.000; 1.99298
 706.05;  -23.007;  -48.000;    0.000;24.99300
 706.62; -144.007;  -59.000;    0.000;-85.00697
 707.20; -122.007;  -85.000;    0.000;-37.00695
 707.78; -115.007;  -60.000;    0.000;-55.00693
 708.35;  -24.007; -109.000;    0.000;84.99310
 708.93;  -33.007;  -43.000;    0.000; 9.99312
 709.51;  -22.007;  -88.000;    0.000;65.99315
 710.08;  -83.007;  -96.000;    0.000;12.99317
 710.66;   11.993;  -57.000;    0.000;68.99319
 711.23;   -8.007;  -30.000;    0.000;21.99322
 711.81;  -93.007;  -84.000;    0.000;-9.00676
 712.39;  -25.007;  -49.000;    0.000;23.99326
 712.96;  -96.007;  -95.000;    0.000;-1.00671
 713.54;  -12.007;  -40.000;    0.000;27.99331
 714.11; -102.007;  -44.000;    0.000;-58.00666
 714.69;  -54.007;  -69.000;    0.000;14.99336
 715.27;  -59.007;  -65.000;    0.000; 5.99338
 715.84;  -16.007;  -19.000;    0.000; 2.99341
 716.42;  -28.007;  -53.000;    0.000;24.99343
 716.99;  -71.007; -111.000;    0.000;39.99345
 717.57;  -37.007;  -43.000;    0.000; 5.99348
 718.15; -101.006; -102.000;    0.000; 0.99350
 718.72;    1.994;  -48.000;    0.000;49.99353
 719.30; -112.006; -118.000;    0.000; 5.99355
 719.87; -130.006;  -42.000;    0.000;-88.00643
 720.45; -112.006; -107.000;    0.000;-5.00640
 721.02;  -25.006;  -88.000;    0.000;62.99362
 721.60;  -81.006;  -75.000;    0.000;-6.00636
 722.17;  -46.006;  -60.000;    0.000;13.99367
 722.75;  -65.006;  -92.000;    0.000;26.99369
 723.33; -110.006; -104.000;    0.000;-6.00628
 723.90;  -48.006;   19.000;    0.000;-67.00626
 724.48;  -53.006;  -80.000;    0.000;26.99376
 725.05;  -27.006;  -81.000;    0.000;53.99379
 725.63;  -45.006;  -69.000;    0.000;23.99381
 726.20;  -25.006;  -27.000;    0.000; 1.99384
 726.78;  -56.006;  -79.000;    0.000;22.99386
 727.35;   43.994;   17.000;    0.000;26.99388
 727.93; -106.006;  -73.000;    0.000;-33.00609
 728.50;   55.994;   32.000;    0.000;23.99393
 729.08;   -7.006;  -54.000;    0.000;46.99395
 729.65;   51.994;   73.000;    0.000;-21.00602
 730.23;  -84.006;  -78.000;    0.000;-6.00600
 730.80;  -71.006;  -70.000;    0.000;-1.00597
 731.38;  -94.006;  -73.000;    0.000;-21.00595
 731.95;   38.994;   36.000;    0.000; 2.99407
 732.53;  -48.006; -116.000;    0.000;67.99410
 733.10;  -56.006;  -20.000;    0.000;-36.00588
 733.68; -136.006;  -58.000;    0.000;-78.00586
 734.25;  -45.006;  -38.000;    0.000;-7.00583
 734.82;  -63.006;  -49.000;    0.000;-14.00581
 735.40; -100.006;  -67.000;    0.000;-33.00578
 735.97;  -44.006;  -49.000;    0.000; 4.99424
 736.55;   19.994;  -10.000;    0.000;29.99426
 737.12;  -83.006;  -56.000;    0.000;-27.00571
 737.70; -115.006; -118.000;    0.000; 2.99431
 738.27;  -48.006;   -2.000;    0.000;-46.00566
 738.85;  -88.006;  -80.000;    0.000;-8.00564
 739.42;  -84.006;  -32.000;    0.000;-52.00562
 739.99;  -61.006;  -75.000;    0.000;13.99441
 740.57; -108.006;  -96.000;    0.000;-12.00557
 741.14;  -30.006;   -6.000;    0.000;-24.00555
 741.72;  -90.006;  -79.000;    0.000;-11.00552
 742.29;   -8.005;  -83.000;    0.000;74.99450
 742.87; -101.005;  -34.000;    0.000;-67.00547
 743.44;  -72.005;  -55.000;    0.000;-17.00545
 744.01;  -23.005;  -52.000;    0.000;28.99457
 744.59;   -3.005;  -49.000;    0.000;45.99460
 745.16;  -40.005;   -2.000;    0.000;-38.00538
 745.73;   -8.005;  -68.000;    0.000;59.99464
 746.31;  -82.005;  -78.000;    0.000;-4.00533
 746.88;  -67.005; -113.000;    0.000;45.99469
 747.46;   21.995;  -33.000;    0.000;54.99472
 748.03;  -74.005;  -90.000;    0.000;15.99474
 748.60;  -94.005;  -71.000;    0.000;-23.00524
 749.18;  -59.005;  -94.000;    0.000;34.99479
 749.75;   65.995;   11.000;    0.000;54.99481
 750.32;  -93.005;  -90.000;    0.000;-3.00516
 750.90;  -81.005;  -68.000;    0.000;-13.00514
 751.47;   76.995;    5.000;    0.000;71.99488
 752.04;  -52.005;  -42.000;    0.000;-10.00509
 752.62;  -95.005;  -94.000;    0.000;-1.00507
 753.19;  -73.005;  -72.000;    0.000;-1.00505
 753.76;  -76.005;  -73.000;    0.000;-3.00502
 754.34;   51.995;  -38.000;    0.000;89.99500
 754.91;  -54.005;  -52.000;    0.000;-2.00497
 755.48;  -46.005;  -44.000;    0.000;-2.00495
 756.06;   19.995;   19.000;    0.000; 0.99507
 756.63;   13.995;   55.000;    0.000;-41.00490
 757.20;  -78.005;  -36.000;    0.000;-42.00488
 757.78; -109.005;  -87.000;    0.000;-22.00486
 758.35;  -63.005;  -75.000;    0.000;11.99517
 758.92;  -50.005;  -17.000;    0.000;-33.00481
 759.50; -101.005;  -32.000;    0.000;-69.00478
 760.07;  -87.005; -105.000;    0.000;17.99524
 760.64;  -42.005;  -95.000;    0.000;52.99526
 761.21;  -22.005;  -32.000;    0.000; 9.99529
 761.79; -135.005; -110.000;    0.000;-25.00469
 762.36;  -77.005;  -19.000;    0.000;-58.00467
 762.93;  -61.005;  -68.000;    0.000; 6.99536
 763.50;  -61.005; -102.000;    0.000;40.99538
 764.08; -119.005;  -83.000;    0.000;-36.00459
 764.65;  -86.005;  -60.000;    0.000;-26.00457
 765.22;  -70.005;  -73.000;    0.000; 2.99545
 765.79;  -49.005; -117.000;    0.000;67.99548
 766.37;  -50.004;  -44.000;    0.000;-6.00450
 766.94;   -4.004;  -12.000;    0.000; 7.99553
 767.51;  -67.004;  -59.000;    0.000;-8.00445
 768.08;   -3.004;  -23.000;    0.000;19.99557
 768.66;    1.996;    4.000;    0.000;-2.00440
 769.23;   10.996;  -49.000;    0.000;59.99562
 769.80;  -78.004; -123.000;    0.000;44.99564
 770.37;  -72.004;  -56.000;    0.000;-16.00433
 770.94;  -71.004;  -11.000;    0.000;-60.00431
 771.52;  -41.004; -125.000;    0.000;83.99572
 772.09;  -80.004;  -22.000;    0.000;-58.00426
 772.66;  -11.004;  -36.000;    0.000;24.99576
 773.23;   17.996;  -63.000;    0.000;80.99579
 773.80;  -20.004;  -32.000;    0.000;11.99581
 774.38;  -64.004;  -82.000;    0.000;17.99583
 774.95;  -10.004;  -10.000;    0.000;-0.00414
 775.52;    2.996;  -19.000;    0.000;21.99588
 776.09;  -33.004;   -4.000;    0.000;-29.00409
 776.66;  -90.004;  -65.000;    0.000;-25.00407
 777.24;  -16.004;  -72.000;    0.000;55.99595
 777.81;   80.996;  -24.000;    0.000;104.99598
 778.38;  -73.004;  -84.000;    0.000;10.99600
 778.95;  -14.004;  -59.000;    0.000;44.99603
 779.52; -127.004;    1.000;    0.000;-128.00395
 780.09;   21.996;   93.000;    0.000;-71.00393
 780.66;  -36.004;    5.000;    0.000;-41.00390
 781.24;   15.996;  -51.000;    0.000;66.99612
 781.81;  -93.004;  -60.000;    0.000;-33.00386
 782.38;  -49.004;  -77.000;    0.000;27.99617
 782.95;  -43.004; -116.000;    0.000;72.99619
 783.52;  -18.004;  -67.000;    0.000;48.99622
 784.09;  -42.004;    8.000;    0.000;-50.00376
 784.66;   21.996;   39.000;    0.000;-17.00374
 785.23;  -71.004;  -73.000;    0.000; 1.99629
 785.80;  -43.004;  -59.000;    0.000;15.99631
 786.38;   14.996;  -54.000;    0.000;68.99633
 786.95;  -31.004;  -61.000;    0.000;29.99636
 787.52;  -53.004;  -79.000;    0.000;25.99638
 788.09;  -55.004;  -88.000;    0.000;32.99641
 788.66; -128.004;  -46.000;    0.000;-82.00357
 789.23;  -22.004;  -56.000;    0.000;33.99645
 789.80; -118.004;  -57.000;    0.000;-61.00352
 790.37;  -70.003;  -75.000;    0.000; 4.99650
 790.94;   89.997;   33.000;    0.000;56.99652
 791.51;  -52.003;  -24.000;    0.000;-28.00345
 792.08; -147.003; -115.000;    0.000;-32.00343
 792.65;    0.997;  -12.000;    0.000;12.99660
 793.22;   52.997;  -62.000;    0.000;114.99662
 793.80;  -87.003; -133.000;    0.000;45.99664
 794.37;  -62.003;  -13.000;    0.000;-49.00333
 794.94;    0.997;   41.000;    0.000;-40.00331
 795.51;  -70.003;  -25.000;    0.000;-45.00328
 796.08;   -7.003;  -36.000;    0.000;28.99674
 796.65;  -24.003;  -63.000;    0.000;38.99676
 797.22;  -65.003;  -82.000;    0.000;16.99679
 797.79;   59.997;   36.000;    0.000;23.99681
 798.36;   -3.003; -136.000;    0.000;132.99683
 798.93; -118.003;  -49.000;    0.000;-69.00314
 799.50;  -60.003; -117.000;    0.000;56.99688
 800.07;  -33.003; -122.000;    0.000;88.99691
 800.64; -122.003;  -57.000;    0.000;-65.00307
 801.21;   15.997;  -21.000;    0.000;36.99695
 801.78;  -15.003;  -70.000;    0.000;54.99698
 802.35;  -46.003; -117.000;    0.000;70.99700
 802.92;  -44.003;  -70.000;    0.000;25.99702
 803.49;  -85.003;  -39.000;    0.000;-46.00295
 804.06;  -64.003;  -32.000;    0.000;-32.00293
 804.63;  -52.003;  -42.000;    0.000;-10.00290
 805.20;  -55.003;  -66.000;    0.000;10.99712
 805.77;  -86.003;  -30.000;    0.000;-56.00286
 806.34;  -84.003; -111.000;    0.000;26.99717
 806.91;   -6.003;  -69.000;    0.000;62.99719
 807.47; -112.003;  -74.000;    0.000;-38.00278
 808.04;   -2.003;  -58.000;    0.000;55.99724
 808.61;  -43.003;  -88.000;    0.000;44.99726
 809.18;  -96.003;  -46.000;    0.000;-50.00271
 809.75;  -85.003;  -70.000;    0.000;-15.00269
 810.32;  -52.003;  -84.000;    0.000;31.99733
 810.89;  -49.003;  -38.000;    0.000;-11.00264
 811.46;  -92.003;   -7.000;    0.000;-85.00262
 812.03;   13.997;  -38.000;    0.000;51.99741
 812.60; -113.003;  -62.000;    0.000;-51.00257
 813.17;  -46.003;  -53.000;    0.000; 6.99745
 813.74;   34.997;   26.000;    0.000; 8.99748
 814.31;  -42.002;  -95.000;    0.000;52.99750
 814.87;  -17.002;  -58.000;    0.000;40.99752
 815.44;  -86.002;  -46.000;    0.000;-40.00245
 816.01;   38.998;  -21.000;    0.000;59.99757
 816.58;  -64.002; -116.000;    0.000;51.99760
 817.15;   10.998;  -56.000;    0.000;66.99762
 817.72;  -86.002; -100.000;    0.000;13.99764
 818.29;  -39.002;   22.000;    0.000;-61.00233
 818.86;  -54.002;   18.000;    0.000;-72.00231
 819.42;  -18.002;  -63.000;    0.000;44.99772
 819.99;  -56.002;  -63.000;    0.000; 6.99774
 820.56;  -87.002; -119.000;    0.000;31.99776
 821.13;  -43.002;  -16.000;    0.000;-27.00221
 821.70;  -57.002; -104.000;    0.000;46.99781
 822.27;  -13.002;  -87.000;    0.000;73.99783
 822.84;  -28.002;  -32.000;    0.000; 3.99786
 823.40;  -83.002;  -71.000;    0.000;-12.00212
 823.97;   49.998;   47.000;    0.000; 2.99791
 824.54;  -84.002; -113.000;    0.000;28.99793
 825.11;  -63.002; -132.000;    0.000;68.99795
 825.68;   75.998;  105.000;    0.000;-29.00202
 826.24;  -78.002;  -36.000;    0.000;-42.00200
 826.81;  -23.002;  -70.000;    0.000;46.99802
 827.38;  -86.002;  -85.000;    0.000;-1.00195
 827.95;  -51.002;    5.000;    0.000;-56.00193
 828.52;  -78.002;  -72.000;    0.000;-6.00190
 829.08;  -29.002;  -53.000;    0.000;23.99812
 829.65;  -62.002;  -74.000;    0.000;11.99814
 830.22;  -51.002;   -8.000;    0.000;-43.00183
 830.79;  -62.002;  -90.000;    0.000;27.99819
 831.36;  -51.002;  -77.000;    0.000;25.99821
 831.92;  130.998;   65.000;    0.000;65.99824
 832.49;  -79.002;  -74.000;    0.000;-5.00174
 833.06;  -40.002;   -9.000;    0.000;-31.00171
 833.63;  -35.002;  -54.000;    0.000;18.99831
 834.19;  -20.002;  -85.000;    0.000;64.99833
 834.76;  -38.002;  -53.000;    0.000;14.99836
 835.33;  -96.002; -124.000;    0.000;27.99838
 835.90;  -78.002;  -76.000;    0.000;-2.00159
 836.46; -120.002;  -92.000;    0.000;-28.00157
 837.03;  -66.002;  -74.000;    0.000; 7.99845
 837.60;  -63.002;  -85.000;    0.000;21.99848
 838.17;  -44.001;  -23.000;    0.000;-21.00150
 838.73;  -51.001;  -23.000;    0.000;-28.00148
 839.30;  -60.001;   -9.000;    0.000;-51.00145
 839.87;  -15.001;    4.000;    0.000;-19.00143
 840.43;   -3.001;  -48.000;    0.000;44.99860
 841.00;   -6.001;    2.000;    0.000;-8.00138
 841.57;  -53.001;  -49.000;    0.000;-4.00136
 842.14; -102.001;  -79.000;    0.000;-23.00133
 842.70;  -23.001;  -59.000;    0.000;35.99869
 843.27;  -28.001;  -73.000;    0.000;44.99871
 843.84;  -71.001;  -40.000;    0.000;-31.00126
 844.40;  -81.001;  -79.000;    0.000;-2.00124
 844.97;  -51.001;  -51.000;    0.000;-0.00121
 845.54;  -56.001;  -58.000;    0.000; 1.99881
 846.10;  -14.001;  -36.000;    0.000;21.99883
 846.67; -132.001; -103.000;    0.000;-29.00114
 847.24;  -56.001;  -85.000;    0.000;28.99888
 847.80;  -80.001;  -66.000;    0.000;-14.00109
 848.37;  -56.001;  -96.000;    0.000;39.99893
 848.94;    0.999;   33.000;    0.000;-32.00105
 849.50;   95.999;   19.000;    0.000;76.99898
 850.07;  -24.001;  -69.000;    0.000;44.99900
 850.63;   33.999;   24.000;    0.000; 9.99902
 851.20;  -68.001;  -85.000;    0.000;16.99905
 851.77;  -75.001;  -61.000;    0.000;-14.00093
 852.33;   53.999;  -29.000;    0.000;82.99910
 852.90;  -52.001;  -66.000;    0.000;13.99912
 853.47;    4.999;  -21.000;    0.000;25.99914
 854.03; -114.001;  -94.000;    0.000;-20.00083
 854.60;   33.999;  -39.000;    0.000;72.99919
 855.16;  -11.001;  -10.000;    0.000;-1.00079
 855.73;  -22.001;  -22.000;    0.000;-0.00076
 856.30;   60.999;   22.000;    0.000;38.99926
 856.86;  -53.001;  -58.000;    0.000; 4.99929
 857.43;   82.999;   -3.000;    0.000;85.99931
 857.99;  -88.001;  -14.000;    0.000;-74.00067
 858.56; -111.001; -122.000;    0.000;10.99936
 859.12;  -68.001;  -30.000;    0.000;-38.00062
 859.69;  -82.001;  -84.000;    0.000; 1.99940
 860.26;  -51.001;  -54.000;    0.000; 2.99943
 860.82;  -70.001;  -50.000;    0.000;-20.00055
 861.39;   21.999;  -68.000;    0.000;89.99948
 861.95; -102.000;  -48.000;    0.000;-54.00050
 862.52;   15.000;   -1.000;    0.000;15.99952
 863.08;  -97.000;  -66.000;    0.000;-31.00045
 863.65;  -45.000;  -14.000;    0.000;-31.00043
 864.21;  -85.000;  -69.000;    0.000;-16.00040
 864.78;  -17.000;  -13.000;    0.000;-4.00038
 865.34;  122.000;  154.000;    0.000;-32.00036
 865.91;  -55.000;  -38.000;    0.000;-17.00033
 866.47; -102.000;  -58.000;    0.000;-44.00031
 867.04;   21.000;  -77.000;    0.000;97.99971
 867.61;  -48.000; -110.000;    0.000;61.99974
 868.17;  -81.000;  -12.000;    0.000;-69.00024
 868.74;  -35.000;  -60.000;    0.000;24.99979
 869.30;  -57.000;  -72.000;    0.000;14.99981
 869.86;  -85.000; -110.000;    0.000;24.99983
 870.43; -120.000;  -72.000;    0.000;-48.00014
 870.99;  -10.000; -115.000;    0.000;104.99988
 871.56;   10.000;  -63.000;    0.000;72.99990
 872.12;  -32.000;  -65.000;    0.000;32.99993
 872.69;  -59.000; -100.000;    0.000;40.99995
 873.25;  -48.000;  -23.000;    0.000;-25.00002
 873.82; -113.000;  -68.000;    0.000;-45.00000
 874.38;  -21.000;    7.000;    0.000;-28.00000
 874.95;  -62.000;    5.000;    0.000;-67.00000
 875.51;   -5.000;  -13.000;    0.000; 8.00000
 876.08;  -98.000;  -54.000;    0.000;-44.00000
 876.64; -104.000; -117.000;    0.000;13.00000
 877.20;  -51.000; -119.000;    0.000;68.00000
 877.77;  -95.000;  -71.000;    0.000;-24.00000
 878.33; -145.000;  -69.000;    0.000;-76.00000
 878.90;  -31.000;  -58.000;    0.000;27.00000
 879.46;   28.000;  -83.000;    0.000;111.00000
 880.03;   73.000;   -3.000;    0.000;76.00000
 880.59;  -38.000;  -86.000;    0.000;48.00000
 881.15;   36.000;   12.000;    0.000;24.00000
 881.72;  -88.000;  -54.000;    0.000;-34.00000
 882.28;   16.000;    7.000;    0.000; 9.00000
 882.85;  -40.000;  -88.000;    0.000;48.00000
 883.41;  -47.000;  -32.000;    0.000;-15.00000
 883.97;  268.000;  247.000;    0.000;21.00000
 884.54;   -6.000;  -62.000;    0.000;56.00000
 885.10; -108.000;  -57.000;    0.000;-51.00000
 885.66;  -24.000;   -9.000;    0.000;-15.00000
 886.23;  -56.000;  -47.000;    0.000;-9.00000
 886.79;  -46.000;  -62.000;    0.000;16.00000
 887.36;  -55.000;   10.000;    0.000;-65.00000
 887.92;  -80.000;  -94.000;    0.000;14.00000
 888.48;  -44.000; -117.000;    0.000;73.00000
 889.05; -100.000; -131.000;    0.000;31.00000
 889.61;  -69.000;  -40.000;    0.000;-29.00000
 890.17;  -99.000;  -54.000;    0.000;-45.00000
 890.74;  -56.000;  -50.000;    0.000;-6.00000
 891.30;  -92.000;  -60.000;    0.000;-32.00000
 891.86;  -64.000;  -58.000;    0.000;-6.00000
 892.43; -106.000; -119.000;    0.000;13.00000
 892.99;  -34.000;  -52.000;    0.000;18.00000
 893.55; -118.000;  -86.000;    0.000;-32.00000
 894.11;  -68.000;  -55.000;    0.000;-13.00000
 894.68;  -44.000;  -48.000;    0.000; 4.00000
 895.24;  -17.000;   24.000;    0.000;-41.00000
 895.80; -101.000;  -65.000;    0.000;-36.00000
 896.37; -105.000;  -58.000;    0.000;-47.00000
 896.93;  -92.000;  -21.000;    0.000;-71.00000
 897.49;  -68.000; -109.000;    0.000;41.00000
 898.05;  -38.000;  -17.000;    0.000;-21.00000
 898.62;    5.000;   47.000;    0.000;-42.00000
 899.18;  -96.000;  -86.000;    0.000;-10.00000
 899.74;   50.000;   63.000;    0.000;-13.00000
 900.31;  -66.000;  -12.000;    0.000;-54.00000
 900.87;  -91.000;  -63.000;    0.000;-28.00000
 901.43;  -79.000; -166.000;    0.000;87.00000
 901.99;  -64.000;  -66.000;    0.000; 2.00000
 902.56;  -41.000;  -22.000;    0.000;-19.00000
 903.12;  127.000;   45.000;    0.000;82.00000
 903.68;    7.000; -107.000;    0.000;114.00000
 904.24;  -36.000;  -48.000;    0.000;12.00000
 904.80;  -44.000;   -6.000;    0.000;-38.00000
 905.37;  -79.000;  -32.000;    0.000;-47.00000
 905.93;   28.000;  -31.000;    0.000;59.00000
 906.49;  -43.000;   -2.000;    0.000;-41.00000
 907.05;  -20.000; -107.000;    0.000;87.00000
 907.61;  -94.000;  -26.000;    0.000;-68.00000
 908.18;  117.000;   25.000;    0.000;92.00000
 908.74;  -80.000;  -34.000;    0.000;-46.00000
 909.30;  -89.000;  -94.000;    0.000; 5.00000
 909.86;  -26.000;  -74.000;    0.000;48.00000
 910.42;  -39.000; -104.000;    0.000;65.00000
 910.99;   30.000;   14.000;    0.000;16.00000
 911.55;  -70.000;  -74.000;    0.000; 4.00000
 912.11; -101.000;  -46.000;    0.000;-55.00000
 912.67;  -41.000;  -28.000;    0.000;-13.00000
 913.23;  -82.000;  -93.000;    0.000;11.00000
 913.79;  -43.000;  -38.000;    0.000;-5.00000
 914.36;    1.000;  -26.000;    0.000;27.00000
 914.92;   22.000;  -48.000;    0.000;70.00000
 915.48;  -65.000;  -69.000;    0.000; 4.00000
 916.04;   89.000;   66.000;    0.000;23.00000
 916.60;  -22.000;  -74.000;    0.000;52.00000
 917.16;  -17.000;  -68.000;    0.000;51.00000
 917.72;  -69.000;  -81.000;    0.000;12.00000
 918.28;  -98.000;  -56.000;    0.000;-42.00000
 918.85;   26.000;    0.000;    0.000;26.00000
 919.41;  -35.000;  -24.000;    0.000;-11.00000
 919.97;  -35.000;  -99.000;    0.000;64.00000
 920.53;  -52.000;  -86.000;    0.000;34.00000
 921.09;   -5.000;   65.000;    0.000;-70.00000
 921.65; -121.000;  -75.000;    0.000;-46.00000
 922.21;  -54.000;  -79.000;    0.000;25.00000
 922.77;  -89.000;  -81.000;    0.000;-8.00000
 923.33; -120.000;  -20.000;    0.000;-100.00000
 923.89;    2.000;  -51.000;    0.000;53.00000
 924.45;  -69.000;  -82.000;    0.000;13.00000
 925.01;  -13.000;  -45.000;    0.000;32.00000
 925.58;  -77.000;  -31.000;    0.000;-46.00000
 926.14;  -70.000;  -59.000;    0.000;-11.00000
 926.70;  -65.000;  -66.000;    0.000; 1.00000
 927.26;   18.000;   -8.000;    0.000;26.00000
 927.82;  -37.000;  -27.000;    0.000;-10.00000
 928.38;  -96.000;  -35.000;    0.000;-61.00000
 928.94;  -53.000;  -46.000;    0.000;-7.00000
 929.50;   12.000;  -32.000;    0.000;44.00000
 930.06;  -77.000; -135.000;    0.000;58.00000
 930.62;  -70.000; -101.000;    0.000;31.00000
 931.18;  -28.000;    0.000;    0.000;-28.00000
 931.74;  -70.000;  -92.000;    0.000;22.00000
 932.30;  -40.000;  -83.000;    0.000;43.00000
 932.86;  -96.000;  -77.000;    0.000;-19.00000
 933.42;  -69.000;  -91.000;    0.000;22.00000
 933.98;  -50.000;  -53.000;    0.000; 3.00000
 934.54;  -23.000;   -9.000;    0.000;-14.00000
 935.10; -116.000;  -91.000;    0.000;-25.00000
 935.66;  -46.000;  -69.000;    0.000;23.00000
 936.22;  -74.000;  -57.000;    0.000;-17.00000
 936.78;  -79.000;  -61.000;    0.000;-18.00000
 937.34;  -55.000;  -46.000;    0.000;-9.00000
 937.90;  -50.000;  -30.000;    0.000;-20.00000
 938.46;  -87.000;  -34.000;    0.000;-53.00000
 939.02;  -47.000;  -45.000;    0.000;-2.00000
 939.58;  -15.000; -130.000;    0.000;115.00000
 940.14;  -54.000;  -54.000;    0.000; 0.00000
 940.70;   55.000;   -6.000;    0.000;61.00000
 941.25;  -54.000;  -90.000;    0.000;36.00000
 941.81; -109.000;  -66.000;    0.000;-43.00000
 942.37;  -44.000;  -62.000;    0.000;18.00000
 942.93;  -63.000; -108.000;    0.000;45.00000
 943.49;  -89.000;  -64.000;    0.000;-25.00000
 944.05;  -91.000; -102.000;    0.000;11.00000
 944.61;  -11.000;    8.000;    0.000;-19.00000
 945.17;  -62.000;  -82.000;    0.000;20.00000
 945.73;  -98.000;  -47.000;    0.000;-51.00000
 946.29;  -40.000;  -75.000;    0.000;35.00000
 946.85; -138.000; -114.000;    0.000;-24.00000
 947.40; -137.000; -121.000;    0.000;-16.00000
 947.96; -105.000;  -34.000;    0.000;-71.00000
 948.52; -117.000;  -89.000;    0.000;-28.00000
 949.08; -110.000;  -52.000;    0.000;-58.00000
 949.64;   77.000;   26.000;    0.000;51.00000
 950.20;  -61.000;  -25.000;    0.000;-36.00000
 950.76;  -12.000;  -50.000;    0.000;38.00000
 951.32; -119.000;  -83.000;    0.000;-36.00000
 951.87;  -67.000;  -63.000;    0.000;-4.00000
 952.43;  -18.000;   12.000;    0.000;-30.00000
 952.99;   -6.000;    2.000;    0.000;-8.00000
 953.55;  -54.000;  -28.000;    0.000;-26.00000
 954.11;  -61.000; -127.000;    0.000;66.00000
 954.67; -106.000;  -56.000;    0.000;-50.00000
 955.22;  -51.000;  -53.000;    0.000; 2.00000
 955.78;   49.000;   30.000;    0.000;19.00000
 956.34;  -61.000;  -15.000;    0.000;-46.00000
 956.90;  -19.000;  -80.000;    0.000;61.00000
 957.46;  -31.000;  -89.000;    0.000;58.00000
 958.01;   18.000;   -9.000;    0.000;27.00000
 958.57;  -67.000;  -72.000;    0.000; 5.00000
 959.13;  -17.000;  -48.000;    0.000;31.00000
 959.69;  -85.000;  -47.000;    0.000;-38.00000
 960.25;  -28.000;  -71.000;    0.000;43.00000
 960.80;  -21.000;  -68.000;    0.000;47.00000
 961.36;  -28.000;  -47.000;    0.000;19.00000
 961.92;  -82.000; -147.000;    0.000;65.00000
 962.48; -135.000;  -90.000;    0.000;-45.00000
 963.03;   -8.000;  -77.000;    0.000;69.00000
 963.59;  -59.000;  -29.000;    0.000;-30.00000
 964.15;  -34.000;  -99.000;    0.000;65.00000
 964.71;  -63.000;  -46.000;    0.000;-17.00000
 965.26; -105.000;  -96.000;    0.000;-9.00000
 965.82;  -74.000;  -53.000;    0.000;-21.00000
 966.38;  -85.000;  -68.000;    0.000;-17.00000
 966.94;  -73.000;  -82.000;    0.000; 9.00000
 967.49; -127.000;  -82.000;    0.000;-45.00000
 968.05; -101.000; -143.000;    0.000;42.00000
 968.61;   39.000;   56.000;    0.000;-17.00000
 969.17; -123.000;  -95.000;    0.000;-28.00000
 969.72;  -84.000; -108.000;    0.000;24.00000
 970.28;    8.000;  -64.000;    0.000;72.00000
 970.84;  -92.000;  -91.000;    0.000;-1.00000
 971.39;  -57.000;  -27.000;    0.000;-30.00000
 971.95;  -77.000;  -95.000;    0.000;18.00000
 972.51; -132.000; -107.000;    0.000;-25.00000
 973.06;   16.000;   13.000;    0.000; 3.00000
 973.62;  -10.000;  -18.000;    0.000; 8.00000
 974.18;  -88.000;  -65.000;    0.000;-23.00000
 974.73; -125.000;  -78.000;    0.000;-47.00000
 975.29;  -14.000;   57.000;    0.000;-71.00000
 975.85;  -36.000;  -36.000;    0.000; 0.00000
 976.40;  -41.000;  -54.000;    0.000;13.00000
 976.96;  -58.000;  -81.000;    0.000;23.00000
 977.52;   14.000;  -24.000;    0.000;38.00000
 978.07;  -45.000;  -56.000;    0.000;11.00000
 978.63;  -86.000;  -93.000;    0.000; 7.00000
 979.19;  -63.000;  -22.000;    0.000;-41.00000
 979.74;   65.000;  -30.000;    0.000;95.00000
 980.30;  -59.000;  -95.000;    0.000;36.00000
 980.85;   20.000;  -17.000;    0.000;37.00000
 981.41;  -75.000;  -69.000;    0.000;-6.00000
 981.97; -117.000;  -98.000;    0.000;-19.00000
 982.52; -102.000; -104.000;    0.000; 2.00000
 983.08;  -51.000;   -1.000;    0.000;-50.00000
 983.63; -112.000;   13.000;    0.000;-125.00000
 984.19;  -27.000;  -84.000;    0.000;57.00000
 984.75; -105.000;  -90.000;    0.000;-15.00000
 985.30; -109.000; -105.000;    0.000;-4.00000
 985.86;  -44.000;  -75.000;    0.000;31.00000
 986.41;  -86.000; -131.000;    0.000;45.00000
 986.97; -132.000; -119.000;    0.000;-13.00000
 987.52;  -54.000;  -74.000;    0.000;20.00000
 988.08;  -65.000;  -99.000;    0.000;34.00000
 988.64;  -76.000; -103.000;    0.000;27.00000
 989.19; -109.000; -112.000;    0.000; 3.00000
 989.75;    8.000;  -19.000;    0.000;27.00000
 990.30; -115.000; -110.000;    0.000;-5.00000
 990.86;  -62.000;  -57.000;    0.000;-5.00000
 991.41;  -76.000;  -66.000;    0.000;-10.00000
 991.97;  -66.000;  -57.000;    0.000;-9.00000
 992.52;  -56.000; -112.000;    0.000;56.00000
 993.08;   -7.000;  -80.000;    0.000;73.00000
 993.63;  -35.000; -115.000;    0.000;80.00000
 994.19;  -38.000;  -76.000;    0.000;38.00000
 994.74;  -83.000; -111.000;    0.000;28.00000
 995.30; -100.000; -125.000;    0.000;25.00000
 995.85; -134.000; -109.000;    0.000;-25.00000
 996.41;  -59.000;  -47.000;    0.000;-12.00000
 996.96;  -77.000;  -65.000;    0.000;-12.00000
 997.52;   37.000;   69.000;    0.000;-32.00000
 998.07;    4.000;  -39.000;    0.000;43.00000
 998.63; -103.000; -126.000;    0.000;23.00000
 999.18;  -66.000;  -20.000;    0.000;-46.00000
 999.74;  -48.000;  -88.000;    0.000;40.00000
1000.29;  -38.000; -110.000;    0.000;72.00000
1000.85;  -74.000;  -57.000;    0.000;-17.00000
1001.40;  -58.000;  -42.000;    0.000;-16.00000
1001.96; -113.000;  -17.000;    0.000;-96.00000
1002.51;  -70.000;  -47.000;    0.000;-23.00000
1003.06;  -87.000;  -94.000;    0.000; 7.00000
1003.62;   23.000;   21.000;    0.000; 2.00000
1004.17;  -85.000; -108.000;    0.000;23.00000
1004.73; -127.000;  -95.000;    0.000;-32.00000
1005.28;  127.000;   83.000;    0.000;44.00000
1005.83;  -72.000; -104.000;    0.000;32.00000
1006.39; -148.000; -107.000;    0.000;-41.00000
1006.94; -159.000; -103.000;    0.000;-56.00000
1007.50;   -3.000;  -39.000;    0.000;36.00000
1008.05; -133.000;  -93.000;    0.000;-40.00000
1008.60;  -52.000;  -49.000;    0.000;-3.00000
1009.16;  -80.000;  -34.000;    0.000;-46.00000
1009.71;   -3.000;  -11.000;    0.000; 8.00000
1010.27;  -64.000; -134.000;    0.000;70.00000
1010.82;  -34.000;  -90.000;    0.000;56.00000
1011.37;   70.000;  -17.000;    0.000;87.00000
1011.93;  -42.000;    2.000;    0.000;-44.00000
1012.48;  -54.000;  -24.000;    0.000;-30.00000
1013.03;  -46.000; -102.000;    0.000;56.00000
1013.59;   25.000;  -70.000;    0.000;95.00000
1014.14;  -73.000; -116.000;    0.000;43.00000
1014.69;  -61.000;  -80.000;    0.000;19.00000
1015.25;   65.000;   81.000;    0.000;-16.00000
1015.80;  -19.000;  -40.000;    0.000;21.00000
1016.35;  -97.000;  -74.000;    0.000;-23.00000
1016.91;  -71.000;  -93.000;    0.000;22.00000
1017.46;  -56.000;  -71.000;    0.000;15.00000
1018.01;  -78.000; -120.000;    0.000;42.00000
1018.57; -127.000; -109.000;    0.000;-18.00000
1019.12;  -89.000; -100.000;    0.000;11.00000
1019.67;   31.000;  -36.000;    0.000;67.00000
1020.23;    4.000;    0.000;    0.000; 4.00000
1020.78; -115.000;  -87.000;    0.000;-28.00000
1021.33;  -44.000;  -27.000;    0.000;-17.00000
1021.88;   34.000;  -39.000;    0.000;73.00000
1022.44;   11.000;   27.000;    0.000;-16.00000
1022.99;  -48.000;  -95.000;    0.000;47.00000
1023.54; -106.000; -140.000;    0.000;34.00000
1024.09;   64.000;    5.000;    0.000;59.00000
1024.65;  -89.000;  -70.000;    0.000;-19.00000
1025.20;  -98.000;  -86.000;    0.000;-12.00000
1025.75; -128.000; -112.000;    0.000;-16.00000
1026.30; -105.000;  -23.000;    0.000;-82.00000
1026.86;  -78.000;  -82.000;    0.000; 4.00000
1027.41;   32.000;    6.000;    0.000;26.00000
1027.96;  -73.000;  -88.000;    0.000;15.00000
1028.51;  -24.000;   27.000;    0.000;-51.00000
1029.07; -115.000;  -72.000;    0.000;-43.00000
1029.62;  -51.000;  -96.000;    0.000;45.00000
1030.17;  -96.000;   34.000;    0.000;-130.00000
1030.72;    0.000;  -13.000;    0.000;13.00000
1031.27;  -72.000;  -29.000;    0.000;-43.00000
1031.83;  -93.000;  -51.000;    0.000;-42.00000
1032.38;   76.000;   -7.000;    0.000;83.00000
1032.93;  -66.000;  -64.000;    0.000;-2.00000
1033.48; -114.000;  -55.000;    0.000;-59.00000
1034.03;  -48.000;  -92.000;    0.000;44.00000
1034.58;  -73.000;  -52.000;    0.000;-21.00000
1035.14;  -94.000;  -85.000;    0.000;-9.00000
1035.69;  -69.000;  -73.000;    0.000; 4.00000
1036.24;  -85.000; -115.000;    0.000;30.00000
1036.79;  -64.000; -119.000;    0.000;55.00000
1037.34;  -66.000;  -81.000;    0.000;15.00000
1037.89;  -77.000; -129.000;    0.000;52.00000
1038.45;  -88.000; -122.000;    0.000;34.00000
1039.00;  -89.000;  -28.000;    0.000;-61.00000
1039.55;  -70.000;  -61.000;    0.000;-9.00000
1040.10;   53.000;   11.000;    0.000;42.00000
1040.65;  -76.000;  -96.000;    0.000;20.00000
1041.20;  -74.000; -102.000;    0.000;28.00000
1041.75;  -54.000; -103.000;    0.000;49.00000
1042.30;  -33.000; -105.000;    0.000;72.00000
1042.85;  -39.000;  -86.000;    0.000;47.00000
1043.41;  -44.000;  -33.000;    0.000;-11.00000
1043.96;  -79.000;  -98.000;    0.000;19.00000
1044.51; -121.000;  -88.000;    0.000;-33.00000
1045.06;   52.000;   20.000;    0.000;32.00000
1045.61;  -40.000;  -54.000;    0.000;14.00000
1046.16;  -66.000;  -38.000;    0.000;-28.00000
1046.71;  -58.000;  -68.000;    0.000;10.00000
1047.26;  -74.000;  -75.000;    0.000; 1.00000
1047.81;  -60.000; -101.000;    0.000;41.00000
1048.36;  -84.000; -128.000;    0.000;44.00000
1048.91;  813.000;  740.000;    0.000;73.00000
1049.46;   57.000;   71.000;    0.000;-14.00000
1050.01; -111.000; -100.000;    0.000;-11.00000
1050.56;  -86.000; -144.000;    0.000;58.00000
1051.11;  -38.000;    5.000;    0.000;-43.00000
1051.66; -123.000;  -89.000;    0.000;-34.00000
1052.21;  -62.000;  -67.000;    0.000; 5.00000
1052.76;  -45.000;  -79.000;    0.000;34.00000
1053.31;  -77.000;  -53.000;    0.000;-24.00000
1053.86;  -17.000;  -15.000;    0.000;-2.00000
1054.41;  -60.000;  -45.000;    0.000;-15.00000
1054.96; -107.000;  -63.000;    0.000;-44.00000
1055.51;  165.000;  140.000;    0.000;25.00000
1056.06; -114.000;  -78.000;    0.000;-36.00000
1056.61;    7.000;   66.000;    0.000;-59.00000
1057.16; -110.000;  -48.000;    0.000;-62.00000
1057.71;  -92.000; -120.000;    0.000;28.00000
1058.26;  -71.000; -105.000;    0.000;34.00000
1058.81;  -79.000;   12.000;    0.000;-91.00000
1059.36;  -80.000; -114.000;    0.000;34.00000
1059.91;  -91.000;  -47.000;    0.000;-44.00000
1060.46;  -48.000;  -67.000;    0.000;19.00000
1061.01; -104.000; -121.000;    0.000;17.00000
1061.56; -109.000;  -93.000;    0.000;-16.00000
1062.11;  -34.000;  -24.000;    0.000;-10.00000
1062.66;  -81.000;  -39.000;    0.000;-42.00000
1063.21; -110.000; -140.000;    0.000;30.00000
1063.76; -108.000;  -42.000;    0.000;-66.00000
1064.31;  -33.000;  -71.000;    0.000;38.00000
1064.86; -125.000;  -97.000;    0.000;-28.00000
1065.40;   47.000;   -6.000;    0.000;53.00000
1065.95;   47.000;  -21.000;    0.000;68.00000
1066.50;  -94.000; -100.000;    0.000; 6.00000
1067.05;   10.000;  -91.000;    0.000;101.00000
1067.60;  -37.000;   27.000;    0.000;-64.00000
1068.15;  -16.000;  -46.000;    0.000;30.00000
1068.70;  -77.000;  -75.000;    0.000;-2.00000
1069.25;  -41.000;  -79.000;    0.000;38.00000
1069.79;  -71.000;  -54.000;    0.000;-17.00000
1070.34; -118.000; -116.000;    0.000;-2.00000
1070.89;  -56.000;   -8.000;    0.000;-48.00000
1071.44;   14.000;  -61.000;    0.000;75.00000
1071.99;  117.000;   96.000;    0.000;21.00000
1072.54;  -39.000;  -88.000;    0.000;49.00000
1073.09;  -81.000;  -19.000;    0.000;-62.00000
1073.63;  -62.000;  -43.000;    0.000;-19.00000
1074.18;  -39.000;  -17.000;    0.000;-22.00000
1074.73;  -99.000;  -79.000;    0.000;-20.00000
1075.28;   36.000;    1.000;    0.000;35.00000
1075.83;  -36.000;  -89.000;    0.000;53.00000
1076.38;  -67.000; -122.000;    0.000;55.00000
1076.92;  -81.000;  -90.000;    0.000; 9.00000
1077.47;  -40.000;  -28.000;    0.000;-12.00000
1078.02;    8.000;   45.000;    0.000;-37.00000
1078.57; -100.000; -107.000;    0.000; 7.00000
1079.11;  -91.000;  -50.000;    0.000;-41.00000
1079.66; -103.000;  -86.000;    0.000;-17.00000
1080.21;  -36.000;  -73.000;    0.000;37.00000
1080.76;    2.000;  -18.000;    0.000;20.00000
1081.31; -128.000; -103.000;    0.000;-25.00000
1081.85;  -98.000;  -76.000;    0.000;-22.00000
1082.40;   -3.000;  -10.000;    0.000; 7.00000
1082.95;  -90.000; -109.000;    0.000;19.00000
1083.50;  -33.000;  -20.000;    0.000;-13.00000
1084.04;  -88.000;  -68.000;    0.000;-20.00000
1084.59; -105.000; -107.000;    0.000; 2.00000
1085.14;  -94.000; -104.000;    0.000;10.00000
1085.69;   -1.000;  -32.000;    0.000;31.00000
1086.23;  -23.000;   -9.000;    0.000;-14.00000
1086.78;  -66.000;  -41.000;    0.000;-25.00000
1087.33;  -75.000;  -34.000;    0.000;-41.00000
1087.87;  -95.000;  -93.000;    0.000;-2.00000
1088.42;   13.000;  -27.000;    0.000;40.00000
1088.97;  -75.000;  -88.000;    0.000;13.00000
1089.52;  -13.000;  -75.000;    0.000;62.00000
1090.06;  -11.000; -126.000;    0.000;115.00000
1090.61; -114.000;  -45.000;    0.000;-69.00000
1091.16;  -33.000;  -85.000;    0.000;52.00000
1091.70;  -82.000;  -83.000;    0.000; 1.00000
1092.25;  -86.000;  -79.000;    0.000;-7.00000
1092.80;  -34.000;  -80.000;    0.000;46.00000
1093.34;  -15.000;  -50.000;    0.000;35.00000
1093.89;  -55.000;  -51.000;    0.000;-4.00000
1094.44;    1.000;  -39.000;    0.000;40.00000
1094.98;   33.000;  -32.000;    0.000;65.00000
1095.53;   -5.000;  -67.000;    0.000;62.00000
1096.07;  -52.000;  -38.000;    0.000;-14.00000
1096.62;  -97.000;  -75.000;    0.000;-22.00000
1097.17;  -36.000;   -4.000;    0.000;-32.00000
1097.71;  -63.000;  -23.000;    0.000;-40.00000
1098.26; -177.000; -132.000;    0.000;-45.00000
1098.81;  -70.000;  -34.000;    0.000;-36.00000
1099.35;  -89.000; -102.000;    0.000;13.00000
1099.90;  -88.000;  -57.000;    0.000;-31.00000
1100.44; -120.000; -172.000;    0.000;52.00000

