Frequency (Hz),VS0 (Air core) RMS (V),VS1 (N1) RMS (V),VS2 (N2) RMS (V)
100,0.247,0.294,0.352
150,0.356,0.424,0.505
200,0.449,0.532,0.629
250,0.523,0.62,0.728
300,0.583,0.69,0.804
350,0.63,0.744,0.864
400,0.668,0.788,0.911
450,0.698,0.823,0.946
500,0.722,0.85,0.974
550,0.742,0.873,0.997
600,0.757,0.89,1.015
650,0.77,0.906,1.028
700,0.781,0.918,1.039
750,0.79,0.929,1.048
800,0.798,0.938,1.055
850,0.804,0.945,1.061
900,0.81,0.951,1.065
950,0.815,0.957,1.069
1000,0.82,0.962,1.073
1050,0.823,0.966,1.075
1100,0.827,0.97,1.077
1150,0.829,0.973,1.078
1200,0.832,0.976,1.079
1250,0.834,0.979,1.08
1300,0.836,0.981,1.081
1350,0.838,0.983,1.081
1400,0.84,0.985,1.081
1450,0.841,0.987,1.081
1500,0.843,0.989,1.081
1550,0.844,0.99,1.081
1600,0.845,0.991,1.08
1650,0.846,0.993,1.08
1700,0.848,0.994,1.08
1750,0.848,0.995,1.079
1800,0.85,0.996,1.078
1850,0.85,0.997,1.078
1900,0.851,0.997,1.076
1950,0.851,0.998,1.076
2000,0.852,0.999,1.075
2050,0.853,0.999,1.074
2100,0.853,1.0,1.073
2150,0.854,1.001,1.073
2200,0.855,1.001,1.072
2250,0.855,1.002,1.071
2300,0.856,1.003,1.07
2350,0.856,1.003,1.069
2400,0.857,1.004,1.068
2450,0.857,1.004,1.067
2500,0.858,1.005,1.066
2550,0.858,1.005,1.065
2600,0.858,1.005,1.065
2650,0.859,1.006,1.064
2700,0.859,1.007,1.063
2750,0.859,1.007,1.062
2800,0.86,1.007,1.061
2850,0.86,1.008,1.06
2900,0.861,1.008,1.059
2950,0.861,1.009,1.059
3000,0.862,1.009,1.058
3050,0.862,1.01,1.058
3100,0.862,1.01,1.056
3150,0.863,1.01,1.056
3200,0.863,1.011,1.055
3250,0.863,1.011,1.054
3300,0.864,1.011,1.054
3350,0.864,1.012,1.053
3400,0.864,1.012,1.052
3450,0.865,1.013,1.052
3500,0.865,1.013,1.051
3550,0.865,1.013,1.05
3600,0.866,1.013,1.049
3650,0.866,1.014,1.049
3700,0.867,1.014,1.048
3750,0.867,1.015,1.047
3800,0.867,1.015,1.047
3850,0.868,1.015,1.046
3900,0.868,1.016,1.045
3950,0.868,1.016,1.045
4000,0.869,1.017,1.044
4050,0.869,1.017,1.043
4100,0.87,1.017,1.043
4150,0.87,1.018,1.042
4200,0.871,1.018,1.042
4250,0.871,1.018,1.041
4300,0.871,1.019,1.04
4350,0.872,1.019,1.04
4400,0.872,1.019,1.039
4450,0.872,1.02,1.039
4500,0.873,1.02,1.038
4550,0.873,1.02,1.038
4600,0.873,1.021,1.037
4650,0.874,1.021,1.037
4700,0.874,1.021,1.036
4750,0.874,1.022,1.035
4800,0.875,1.022,1.035
4850,0.875,1.022,1.034
4900,0.876,1.023,1.034
4950,0.876,1.023,1.034
5000,0.876,1.023,1.033
5050,0.877,1.024,1.033
5100,0.877,1.024,1.032
5150,0.878,1.025,1.032
5200,0.878,1.025,1.031
5250,0.878,1.025,1.031
5300,0.879,1.025,1.03
5350,0.879,1.026,1.03
5400,0.88,1.026,1.03
5450,0.88,1.026,1.029
5500,0.88,1.027,1.029
5550,0.881,1.027,1.028
5600,0.881,1.028,1.028
5650,0.882,1.028,1.028
5700,0.882,1.028,1.027
5750,0.882,1.028,1.027
5800,0.883,1.029,1.026
5850,0.883,1.029,1.026
5900,0.883,1.029,1.026
5950,0.884,1.03,1.026
6000,0.885,1.03,1.025
6050,0.885,1.031,1.025
6100,0.885,1.031,1.024
6150,0.886,1.031,1.024
6200,0.886,1.032,1.024
6250,0.886,1.032,1.024
6300,0.887,1.032,1.023
6350,0.887,1.033,1.023
6400,0.888,1.033,1.023
6450,0.888,1.033,1.022
6500,0.888,1.034,1.022
6550,0.889,1.034,1.022
6600,0.889,1.035,1.022
6650,0.89,1.035,1.021
6700,0.89,1.035,1.021
6750,0.891,1.036,1.021
6800,0.891,1.036,1.02
6850,0.892,1.036,1.02
6900,0.892,1.037,1.02
6950,0.892,1.037,1.02
7000,0.893,1.038,1.019
7050,0.894,1.038,1.019
7100,0.894,1.038,1.019
7150,0.895,1.039,1.018
7200,0.895,1.039,1.018
7250,0.895,1.039,1.018
7300,0.896,1.04,1.018
7350,0.896,1.04,1.018
7400,0.897,1.041,1.017
7450,0.897,1.041,1.017
7500,0.898,1.041,1.016
7550,0.899,1.041,1.016
7600,0.899,1.042,1.016
7650,0.899,1.043,1.016
7700,0.9,1.043,1.015
7750,0.9,1.043,1.015
7800,0.901,1.043,1.015
7850,0.901,1.044,1.015
7900,0.902,1.044,1.015
7950,0.903,1.044,1.015
8000,0.903,1.045,1.014
8050,0.904,1.045,1.014
8100,0.904,1.045,1.014
8150,0.904,1.046,1.013
8200,0.905,1.046,1.013
8250,0.905,1.046,1.013
8300,0.906,1.047,1.013
8350,0.906,1.047,1.012
8400,0.907,1.047,1.012
8450,0.907,1.047,1.012
8500,0.908,1.048,1.012
8550,0.908,1.048,1.012
8600,0.908,1.048,1.011
8650,0.909,1.049,1.011
8700,0.909,1.049,1.011
8750,0.91,1.05,1.01
8800,0.91,1.05,1.01
8850,0.91,1.05,1.01
8900,0.911,1.05,1.01
8950,0.912,1.05,1.009
9000,0.912,1.051,1.009
9050,0.913,1.051,1.008
9100,0.913,1.051,1.009
9150,0.913,1.051,1.008
9200,0.914,1.052,1.008
9250,0.914,1.052,1.008
9300,0.915,1.052,1.007
9350,0.915,1.053,1.007
9400,0.916,1.053,1.007
9450,0.916,1.053,1.007
9500,0.917,1.053,1.007
9550,0.917,1.053,1.006
9600,0.917,1.053,1.006
9650,0.918,1.054,1.006
9700,0.918,1.053,1.005
9750,0.919,1.054,1.005
9800,0.919,1.054,1.005
9850,0.92,1.054,1.005
9900,0.92,1.054,1.004
9950,0.92,1.055,1.004
10000,0.92,1.055,1.004
