Ne
Integration time [ms]:  10.000
Averaging Nr. [scans]: 60
Smoothing Nr. [pixels]: 0
Data measured with spectrometer [name]: 1701237U1
Wave   ;Sample   ;Dark     ;Reference
[nm]   ;[counts] ;[counts] ;[counts] 

173.876;   -6.703;   -9.516;    0.000
174.482;    2.287;    2.584;    0.000
175.087;   -7.588;   -4.750;    0.000
175.693;   -3.596;   -1.833;    0.000
176.298;    0.979;   -0.099;    0.000
176.903;    0.793;   -2.250;    0.000
177.509;    1.246;   -3.666;    0.000
178.114;   -3.565;   -1.649;    0.000
178.719;    5.008;   -2.050;    0.000
179.325;   -3.101;    3.418;    0.000
179.930;    1.817;    4.134;    0.000
180.535;   -3.671;   -5.166;    0.000
181.140;   -5.704;   -6.399;    0.000
181.745;   -2.573;    1.700;    0.000
182.351;   -1.304;   -4.383;    0.000
182.956;   -3.742;   -0.500;    0.000
183.561;   -1.305;    9.551;    0.000
184.166;   -0.212;   -1.449;    0.000
184.771;    0.846;  -10.916;    0.000
185.376;   -2.897;    3.967;    0.000
185.981;   -6.097;   -2.949;    0.000
186.586;    3.925;   -0.716;    0.000
187.191;   -8.261;   -1.533;    0.000
187.796;   -4.519;    0.768;    0.000
188.400;    3.171;   -1.848;    0.000
189.005;   -6.181;    1.917;    0.000
189.610;   -4.876;  -10.649;    0.000
190.215;   -7.069;   -4.199;    0.000
190.820;   -4.350;    2.268;    0.000
191.424;  -12.538;    4.785;    0.000
192.029;   -6.373;   -4.532;    0.000
192.634;   -4.726;    5.385;    0.000
193.238;   -0.723;   -5.316;    0.000
193.843;   -7.181;  -13.082;    0.000
194.448;   -4.360;   -4.149;    0.000
195.052;   -0.451;    1.734;    0.000
195.657;   -7.357;   -1.549;    0.000
196.261;  -12.715;   -4.798;    0.000
196.866;   -2.612;    1.285;    0.000
197.470;   -6.723;   -0.565;    0.000
198.075;  -11.348;   -9.648;    0.000
198.679;   -8.333;    0.785;    0.000
199.284;   -6.969;   -7.332;    0.000
199.888;    1.909;    3.902;    0.000
200.492;   -9.865;   -3.798;    0.000
201.097;   -4.874;   -7.915;    0.000
201.701;   -0.767;   -5.465;    0.000
202.305;   -5.331;    5.351;    0.000
202.909;   -3.648;   -8.349;    0.000
203.514;   -2.875;   -4.415;    0.000
204.118;   -0.870;   -8.716;    0.000
204.722;   -0.759;    1.300;    0.000
205.326;   -4.815;   -2.633;    0.000
205.930;   -7.885;   -1.882;    0.000
206.534;    0.146;   -2.632;    0.000
207.138;  -11.020;   -0.616;    0.000
207.742;   -3.485;   -4.166;    0.000
208.346;   -6.406;    2.218;    0.000
208.950;   -1.403;   -1.132;    0.000
209.554;    4.330;    1.584;    0.000
210.158;   -2.973;   -2.415;    0.000
210.762;   -7.022;   -1.549;    0.000
211.366;   -1.988;   -9.716;    0.000
211.970;   -5.297;   -4.833;    0.000
212.574;  -13.180;   -4.198;    0.000
213.177;   -7.358;   -2.182;    0.000
213.781;   -4.194;   -8.748;    0.000
214.385;   -4.819;   -2.182;    0.000
214.989;  -12.041;   -1.732;    0.000
215.592;  -13.345;    2.085;    0.000
216.196;   -3.848;    0.635;    0.000
216.800;   -8.080;    0.285;    0.000
217.403;   -8.473;  -10.265;    0.000
218.007;   -5.984;    1.885;    0.000
218.610;   -7.477;   -7.482;    0.000
219.214;   -3.253;    5.334;    0.000
219.817;   -4.437;  -10.799;    0.000
220.421;   -5.988;   -1.682;    0.000
221.024;   -6.640;   -9.681;    0.000
221.628;   -3.993;    4.519;    0.000
222.231;   -4.679;   -8.348;    0.000
222.834;   -7.905;   -1.749;    0.000
223.438;   -5.615;   -3.999;    0.000
224.041;   -7.327;    2.652;    0.000
224.644;   -3.016;   -6.465;    0.000
225.248;   -9.588;   -0.482;    0.000
225.851;   -5.000;   -4.916;    0.000
226.454;   -5.862;   -1.998;    0.000
227.057;    2.226;   -2.415;    0.000
227.660;   -2.037;  -10.716;    0.000
228.263;   -7.676;   -5.715;    0.000
228.866;   -2.144;    1.368;    0.000
229.470;   -5.573;   -1.449;    0.000
230.073;   -2.862;   -2.948;    0.000
230.676;    1.320;   -0.616;    0.000
231.279;   -1.297;    1.485;    0.000
231.882;   -4.627;   -5.432;    0.000
232.484;   -3.399;   -1.199;    0.000
233.087;   -8.751;   -4.182;    0.000
233.690;   -2.872;  -11.399;    0.000
234.293;    0.778;   -4.115;    0.000
234.896;   -5.163;   -0.915;    0.000
235.499;   -2.461;   -6.964;    0.000
236.101;   -1.238;    0.301;    0.000
236.704;   -5.078;   -7.115;    0.000
237.307;  -10.531;   -5.765;    0.000
237.910;   -4.263;   -9.782;    0.000
238.512;   -7.351;   -1.016;    0.000
239.115;  -13.002;   -9.767;    0.000
239.717;   -4.217;   -8.131;    0.000
240.320;   -6.894;  -10.633;    0.000
240.923;   -4.862;   -5.732;    0.000
241.525;    0.516;  -10.948;    0.000
242.128;   -7.825;   -9.249;    0.000
242.730;   -1.754;   -6.699;    0.000
243.332;  -11.524;   -0.400;    0.000
243.935;  -10.814;   -1.515;    0.000
244.537;   -7.273;    1.168;    0.000
245.140;   -8.892;  -12.915;    0.000
245.742;   -7.279;   -2.282;    0.000
246.344;   -4.927;   -7.665;    0.000
246.946;   -6.548;   -1.298;    0.000
247.549;  -11.144;   -6.182;    0.000
248.151;  -12.538;  -13.365;    0.000
248.753;   -4.220;   -9.399;    0.000
249.355;   -6.688;   -6.248;    0.000
249.957;  -13.534;   -4.899;    0.000
250.559;   -6.644;   -3.732;    0.000
251.161;   -3.504;   -4.349;    0.000
251.764;   -5.676;    4.235;    0.000
252.366;   -9.185;   -9.199;    0.000
252.968;  -10.142;   -4.049;    0.000
253.570;   -6.073;  -13.182;    0.000
254.171;   -6.197;    1.468;    0.000
254.773;  -14.619;   -2.516;    0.000
255.375;  -13.848;   -1.782;    0.000
255.977;  -10.308;   -2.533;    0.000
256.579;  -10.652;   -2.549;    0.000
257.181;   -5.575;   -2.132;    0.000
257.782;   -3.174;   -4.699;    0.000
258.384;   -9.773;   -2.849;    0.000
258.986;   -3.716;   -1.599;    0.000
259.588;  -11.104;   -5.232;    0.000
260.189;  -10.445;   -6.182;    0.000
260.791;   -8.161;   -1.865;    0.000
261.392;   -3.231;   -0.432;    0.000
261.994;   -2.916;  -11.532;    0.000
262.596;   -1.497;  -10.398;    0.000
263.197;   -0.398;  -14.566;    0.000
263.799;   -7.492;   -0.464;    0.000
264.400;   -5.027;   -8.932;    0.000
265.002;  -10.323;   -2.965;    0.000
265.603;   -4.638;   -7.899;    0.000
266.204;  -12.084;   -1.699;    0.000
266.806;  -13.722;   -2.115;    0.000
267.407;   -2.330;   -2.765;    0.000
268.008;   -3.100;   -1.966;    0.000
268.610;   -5.231;   -4.065;    0.000
269.211;   -3.132;   -7.598;    0.000
269.812;   -5.314;   -1.333;    0.000
270.413;   -9.556;   -9.849;    0.000
271.014;   -6.178;   -5.832;    0.000
271.615;  -16.466;   -7.866;    0.000
272.217;  -14.368;  -11.099;    0.000
272.818;   -8.493;  -12.332;    0.000
273.419;   -7.259;   -5.532;    0.000
274.020;   -8.655;   -7.799;    0.000
274.621;   -6.818;   -8.565;    0.000
275.222;  -11.617;  -15.382;    0.000
275.823;  -12.397;   -5.332;    0.000
276.423;   -8.213;   -9.265;    0.000
277.024;  -13.617;   -4.632;    0.000
277.625;   -8.694;  -10.032;    0.000
278.226;  -15.444;   -1.032;    0.000
278.827;   -3.964;   -0.465;    0.000
279.427;  -13.830;   -0.698;    0.000
280.028;   -8.843;  -13.783;    0.000
280.629;  -15.042;   -9.532;    0.000
281.230;  -10.308;  -12.465;    0.000
281.830;  -12.468;   -6.615;    0.000
282.431;   25.841;   -6.965;    0.000
283.031;   -5.505;    5.335;    0.000
283.632;  -10.594;  -12.448;    0.000
284.233;   -4.481;   -0.265;    0.000
284.833;   -0.449;  -12.365;    0.000
285.434;  -11.839;    3.551;    0.000
286.034;   -8.730;   -6.399;    0.000
286.634;  -10.078;   -1.532;    0.000
287.235;   -7.239;   -3.499;    0.000
287.835;   -5.935;   -9.799;    0.000
288.435;   -9.721;  -10.582;    0.000
289.036;  -12.582;    3.868;    0.000
289.636;   -3.354;  -10.032;    0.000
290.236;  -11.846;  -13.081;    0.000
290.837;  -13.206;  -12.400;    0.000
291.437;   -9.348;   -0.633;    0.000
292.037;   -8.110;   -6.599;    0.000
292.637;   -4.552;   -2.732;    0.000
293.237;   -5.464;   -5.549;    0.000
293.837;   -5.612;   -0.732;    0.000
294.437;   -9.577;   -5.332;    0.000
295.037;  -10.852;   -9.066;    0.000
295.637;   -4.295;  -13.533;    0.000
296.237;   -6.912;  -10.766;    0.000
296.837;  -10.015;   -4.999;    0.000
297.437;   -4.707;   -3.199;    0.000
298.037;  -13.772;   -9.066;    0.000
298.637;  -13.129;   -7.833;    0.000
299.237;   -4.326;  -12.299;    0.000
299.836;   -4.813;   -6.499;    0.000
300.436;   -9.020;  -17.916;    0.000
301.036;   -3.074;    1.334;    0.000
301.636;   -8.611;  -16.782;    0.000
302.235;  -16.907;   -1.499;    0.000
302.835;  -10.290;   -8.966;    0.000
303.434;   -9.093;   -6.532;    0.000
304.034;   -4.900;  -12.198;    0.000
304.634;  -15.217;   -2.599;    0.000
305.233;   -9.920;   -1.182;    0.000
305.833;   -9.489;  -12.332;    0.000
306.432;   -8.439;   -7.615;    0.000
307.032;   -4.244;   -3.465;    0.000
307.631;  -14.538;   -3.799;    0.000
308.230;   -6.976;   -2.182;    0.000
308.830;   -2.495;  -11.098;    0.000
309.429;  -14.985;   -7.565;    0.000
310.028;   -7.237;   -8.165;    0.000
310.628;   -9.431;   -3.798;    0.000
311.227;   -9.371;  -12.231;    0.000
311.826;   -4.439;   -7.765;    0.000
312.425;   -2.866;  -11.666;    0.000
313.024;  -10.696;    2.668;    0.000
313.623;  -11.670;   -4.182;    0.000
314.223;  -10.690;    2.601;    0.000
314.822;   -8.880;  -10.415;    0.000
315.421;   -4.720;   -0.981;    0.000
316.020;  -10.048;   -5.932;    0.000
316.619;  -14.458;   -9.681;    0.000
317.218;   -9.021;   -6.965;    0.000
317.816;  -10.351;   -4.565;    0.000
318.415;   -7.054;    0.384;    0.000
319.014;  -11.435;   -9.031;    0.000
319.613;  -13.054;    0.252;    0.000
320.212;   -5.118;   -8.448;    0.000
320.811;   -9.965;   -8.897;    0.000
321.409;   -3.755;  -10.465;    0.000
322.008;   -9.747;   -5.332;    0.000
322.607;  -14.211;  -10.064;    0.000
323.205;   -1.853;   -7.281;    0.000
323.804;   -2.402;   -2.898;    0.000
324.403;  -12.637;  -15.830;    0.000
325.001;   -8.529;    3.036;    0.000
325.600;  -11.961;  -10.264;    0.000
326.198;   -9.207;  -10.198;    0.000
326.797;  -17.946;  -11.181;    0.000
327.395;  -13.606;   -6.764;    0.000
327.994;  -12.685;   -3.713;    0.000
328.592;  -11.605;   -4.229;    0.000
329.190;   -8.063;   -5.496;    0.000
329.789;   -6.311;   -8.329;    0.000
330.387;   -5.882;  -10.645;    0.000
330.985;   -6.678;  -13.062;    0.000
331.583;   -7.239;  -19.328;    0.000
332.182;   -6.017;   -5.994;    0.000
332.780;   -8.536;  -11.178;    0.000
333.378;  -11.798;   -6.260;    0.000
333.976;  -24.891;  -16.361;    0.000
334.574;   -4.529;   -4.277;    0.000
335.172;  -12.440;  -12.911;    0.000
335.770;   -9.518;  -10.861;    0.000
336.368;  -12.262;   -7.010;    0.000
336.966;  -12.442;   -7.128;    0.000
337.564;   -6.248;  -10.395;    0.000
338.162;  -13.160;   -2.311;    0.000
338.760;  -11.058;  -17.596;    0.000
339.358;  -16.600;   -7.295;    0.000
339.956;   -7.829;  -10.579;    0.000
340.554;   -6.878;   -1.796;    0.000
341.151;   -3.696;   -8.779;    0.000
341.749;  -14.991;   -5.645;    0.000
342.347;  -10.792;  -10.595;    0.000
342.944;  -10.098;   -9.810;    0.000
343.542;   -9.397;   -9.578;    0.000
344.140;    0.451;   -9.828;    0.000
344.737;   -1.457;  -13.994;    0.000
345.335;   -6.511;   -8.545;    0.000
345.932;   -4.994;  -11.145;    0.000
346.530;   -6.083;   -4.729;    0.000
347.127;   -6.954;   -8.628;    0.000
347.725;   -3.918;   -6.894;    0.000
348.322;   -1.502;  -13.312;    0.000
348.920;   -3.391;  -11.528;    0.000
349.517;   -9.794;   -8.828;    0.000
350.114;    1.288;  -13.711;    0.000
350.712;   -5.187;  -13.029;    0.000
351.309;   -0.999;   -6.695;    0.000
351.906;   -7.217;  -13.429;    0.000
352.503;   -6.352;  -10.429;    0.000
353.100;   -3.737;   -9.762;    0.000
353.698;   -7.324;   -4.663;    0.000
354.295;    3.078;   -4.612;    0.000
354.892;   -7.850;   -0.961;    0.000
355.489;   -7.177;  -12.962;    0.000
356.086;  -13.363;   -7.528;    0.000
356.683;   -4.351;  -10.162;    0.000
357.280;   -7.919;   -7.994;    0.000
357.877;   -7.067;  -15.711;    0.000
358.474;   -8.640;   -3.162;    0.000
359.070;   -9.801;  -21.779;    0.000
359.667;  -10.103;   -6.962;    0.000
360.264;   -5.938;  -14.012;    0.000
360.861;   -2.311;  -12.611;    0.000
361.458;   -4.593;  -14.679;    0.000
362.054;   -2.661;  -13.861;    0.000
362.651;  -10.961;  -10.296;    0.000
363.248;  -16.911;   -4.562;    0.000
363.844;   -8.677;  -15.296;    0.000
364.441;  -11.166;  -10.295;    0.000
365.037;  -12.101;   -9.679;    0.000
365.634;   -4.315;  -10.262;    0.000
366.230;   -7.843;  -15.829;    0.000
366.827;   -6.531;   -8.862;    0.000
367.423;  -11.657;   -5.578;    0.000
368.020;   -4.648;   -7.162;    0.000
368.616;  -10.108;  -19.262;    0.000
369.213;  -13.924;   -4.645;    0.000
369.809;   -2.738;   -8.995;    0.000
370.405;   -9.950;   -3.596;    0.000
371.001;  -13.934;  -16.211;    0.000
371.598;   -9.180;   -9.095;    0.000
372.194;   -9.188;   -9.778;    0.000
372.790;   -8.725;   -7.746;    0.000
373.386;   -5.847;  -10.879;    0.000
373.982;   -9.025;   -7.428;    0.000
374.578;  -14.784;  -19.445;    0.000
375.174;   -8.890;   -8.811;    0.000
375.770;   -9.859;  -13.745;    0.000
376.366;  -19.810;   -4.278;    0.000
376.962;   -7.692;  -12.528;    0.000
377.558;  -13.949;   -7.095;    0.000
378.154;  -10.635;  -13.279;    0.000
378.750;  -18.459;  -14.028;    0.000
379.346;   -6.774;  -12.695;    0.000
379.942;   -8.729;   -6.345;    0.000
380.537;   -7.466;   -5.478;    0.000
381.133;  -12.126;   -8.362;    0.000
381.729;  -10.177;  -21.962;    0.000
382.325;  -11.671;   -7.396;    0.000
382.920;   -7.608;  -16.095;    0.000
383.516;  -12.451;   -5.262;    0.000
384.111;   -4.558;  -23.195;    0.000
384.707;  -18.966;   -4.494;    0.000
385.302;   -3.580;   -4.745;    0.000
385.898;   -3.740;  -11.295;    0.000
386.493;   -6.515;  -13.445;    0.000
387.089;  -12.902;   -7.211;    0.000
387.684;  -10.337;  -14.595;    0.000
388.280;   -9.671;  -11.895;    0.000
388.875;   -7.776;   -9.346;    0.000
389.470;  -15.382;   -7.528;    0.000
390.066;  -14.541;   -9.912;    0.000
390.661;   -7.750;   -9.579;    0.000
391.256;   -8.796;  -18.561;    0.000
391.851;   -9.125;  -10.262;    0.000
392.446;   -8.311;  -13.195;    0.000
393.041;  -18.864;  -13.996;    0.000
393.637;   -6.451;  -22.112;    0.000
394.232;   -8.873;  -12.762;    0.000
394.827;   -6.584;   -5.979;    0.000
395.422;  -12.272;   -6.978;    0.000
396.017;   -5.598;  -10.662;    0.000
396.612;  -16.267;  -11.228;    0.000
397.206;  -17.324;  -21.628;    0.000
397.801;  136.595;  144.672;    0.000
398.396;   -5.607;   -8.745;    0.000
398.991;  -15.407;  -11.295;    0.000
399.586;  -16.581;   -7.145;    0.000
400.180;  -13.839;   -9.562;    0.000
400.775;  -10.854;  -12.028;    0.000
401.370;  -15.810;  -10.846;    0.000
401.965;  -12.627;  -16.395;    0.000
402.559;  -14.754;  -16.462;    0.000
403.154;  -10.855;  -15.245;    0.000
403.748;  -14.414;  -13.896;    0.000
404.343;   -6.109;  -20.662;    0.000
404.937;  -12.274;  -11.912;    0.000
405.532;  -16.078;  -18.978;    0.000
406.126;  -15.047;   -9.161;    0.000
406.721;   -9.678;   -7.679;    0.000
407.315;  -12.390;   -7.328;    0.000
407.909;  -14.371;  -14.545;    0.000
408.504;   -7.040;   -5.696;    0.000
409.098;   -8.820;   -9.995;    0.000
409.692;  -13.080;   -2.679;    0.000
410.286;  -10.615;  -17.379;    0.000
410.881;  -19.553;  -10.429;    0.000
411.475;   -7.798;   -8.512;    0.000
412.069;  -19.664;   -8.395;    0.000
412.663;  -20.482;  -16.979;    0.000
413.257;  -20.177;   -8.212;    0.000
413.851;  -12.426;  -13.229;    0.000
414.445;  -13.402;  -12.162;    0.000
415.039;  -12.727;  -12.162;    0.000
415.633;   -9.853;  -10.095;    0.000
416.227;  -16.719;  -11.862;    0.000
416.821;  -18.622;  -12.028;    0.000
417.415;   -6.122;  -16.029;    0.000
418.008;  -15.534;  -11.129;    0.000
418.602;   -4.107;  -14.812;    0.000
419.196;  -17.247;  -12.996;    0.000
419.790;  -12.093;  -17.396;    0.000
420.383;  -14.862;  -11.912;    0.000
420.977;   -6.976;   -9.846;    0.000
421.571;   -9.149;  -16.745;    0.000
422.164;  -15.738;  -16.396;    0.000
422.758;  -12.587;  -13.963;    0.000
423.351;   -9.979;  -12.446;    0.000
423.945;  -16.172;   -5.996;    0.000
424.538;  -16.985;  -11.963;    0.000
425.132;  -15.368;  -15.512;    0.000
425.725;  -12.541;  -16.113;    0.000
426.318;  -11.463;  -12.062;    0.000
426.912;   -8.534;  -16.896;    0.000
427.505;   -7.480;   -7.946;    0.000
428.098;   -9.054;  -16.779;    0.000
428.692;  -16.255;  -13.429;    0.000
429.285;  -18.534;  -18.062;    0.000
429.878;  -10.761;  -19.296;    0.000
430.471;   -7.381;  -18.863;    0.000
431.064;  -15.654;  -10.796;    0.000
431.657;   -9.884;  -14.713;    0.000
432.250;  -16.554;  -12.896;    0.000
432.843;  -12.428;  -15.997;    0.000
433.436;   -8.979;   -4.729;    0.000
434.029;  -11.262;  -11.680;    0.000
434.622;  -12.920;  -10.813;    0.000
435.215;  -13.168;  -18.147;    0.000
435.808;   -9.884;  -14.413;    0.000
436.401;  -19.125;  -18.730;    0.000
436.994;   -9.937;  -10.829;    0.000
437.586;  -13.333;  -10.363;    0.000
438.179;   -9.877;  -12.997;    0.000
438.772;  -16.592;  -16.913;    0.000
439.364;  -10.469;  -19.696;    0.000
439.957;  -16.802;  -11.980;    0.000
440.550;  -15.648;  -23.263;    0.000
441.142;  -10.259;  -14.313;    0.000
441.735;  -11.629;  -13.362;    0.000
442.327;  -14.873;  -10.846;    0.000
442.920;   -7.889;  -12.080;    0.000
443.512;  -14.664;  -15.396;    0.000
444.104;   -9.469;  -17.863;    0.000
444.697;  -15.321;  -24.280;    0.000
445.289;  -13.939;   -4.663;    0.000
445.881;  -19.017;  -11.396;    0.000
446.474;  -15.838;  -12.214;    0.000
447.066;  -12.707;  -14.647;    0.000
447.658;  -15.219;  -17.380;    0.000
448.250;  -11.144;  -10.747;    0.000
448.843;  -13.812;  -15.097;    0.000
449.435;  -18.263;  -20.747;    0.000
450.027;  -25.160;  -14.879;    0.000
450.619;  -17.420;  -18.713;    0.000
451.211;  -15.224;  -18.763;    0.000
451.803;  -12.961;  -17.613;    0.000
452.395;  -14.390;   -8.030;    0.000
452.987;  -17.652;  -19.514;    0.000
453.579;  -18.571;  -14.514;    0.000
454.170;  -15.442;  -21.214;    0.000
454.762;   -9.914;  -12.181;    0.000
455.354;  -15.970;  -25.147;    0.000
455.946;  -12.394;  -10.497;    0.000
456.537;  -14.730;  -17.597;    0.000
457.129;  -13.993;  -13.980;    0.000
457.721;  -13.210;  -25.764;    0.000
458.312;  -11.179;  -12.564;    0.000
458.904;  -13.640;  -16.197;    0.000
459.496;  -11.310;   -8.730;    0.000
460.087;  -16.947;  -24.580;    0.000
460.679;  -13.355;  -12.947;    0.000
461.270;  -14.057;  -16.563;    0.000
461.862;  -10.952;  -10.847;    0.000
462.453;   -6.532;  -17.865;    0.000
463.044;  -18.258;  -15.397;    0.000
463.636;   -9.472;  -12.048;    0.000
464.227;   -7.523;  -11.014;    0.000
464.818;  -12.434;  -19.831;    0.000
465.409;  -19.982;  -18.848;    0.000
466.001;  -16.933;  -15.181;    0.000
466.592;  -15.819;   -8.998;    0.000
467.183;  -12.174;  -22.214;    0.000
467.774;  -18.847;  -19.197;    0.000
468.365;  -10.324;  -18.897;    0.000
468.956;  -17.224;  -12.180;    0.000
469.547;  -15.401;  -16.647;    0.000
470.138;  -11.606;  -15.997;    0.000
470.729;  -17.062;  -17.297;    0.000
471.320;  -10.864;   -6.131;    0.000
471.911;  -13.294;  -21.014;    0.000
472.502;  -17.047;  -15.330;    0.000
473.092;  -15.285;  -15.281;    0.000
473.683;  -12.411;  -11.680;    0.000
474.274;  -12.755;  -10.465;    0.000
474.865;  -19.000;  -16.131;    0.000
475.455;  -15.576;  -18.881;    0.000
476.046;  -13.310;  -18.098;    0.000
476.637;  -14.875;  -16.098;    0.000
477.227;  -14.614;  -15.314;    0.000
477.818;  -21.193;  -21.898;    0.000
478.408;  -19.326;  -18.031;    0.000
478.999;  -13.264;  -20.697;    0.000
479.589;  -14.421;  -12.697;    0.000
480.180;  -11.655;  -14.798;    0.000
480.770;  -17.256;  -18.248;    0.000
481.360;  -12.189;  -18.031;    0.000
481.951;  -17.048;   -9.031;    0.000
482.541;  -14.075;  -14.647;    0.000
483.131;  -17.566;  -15.264;    0.000
483.721;  -11.003;  -18.548;    0.000
484.312;  -17.676;  -17.014;    0.000
484.902;  -18.408;  -22.914;    0.000
485.492;  -17.280;  -13.298;    0.000
486.082;  -10.003;  -21.481;    0.000
486.672;   -7.566;   -9.365;    0.000
487.262;   -7.234;  -21.665;    0.000
487.852;  -17.808;  -10.814;    0.000
488.442;  -16.132;  -13.264;    0.000
489.032;  -15.422;  -16.065;    0.000
489.622;  -10.650;  -26.031;    0.000
490.212;  -10.973;  -14.831;    0.000
490.801;  -12.551;  -14.931;    0.000
491.391;  -18.556;   -8.731;    0.000
491.981;  -17.053;  -20.515;    0.000
492.571;  -15.044;  -10.198;    0.000
493.160;  -15.679;  -21.031;    0.000
493.750;  -20.278;  -16.281;    0.000
494.340;  -13.358;  -18.564;    0.000
494.929;  -14.781;  -18.598;    0.000
495.519;   -9.945;  -19.197;    0.000
496.108;  -14.977;  -16.364;    0.000
496.698;  -21.922;  -21.380;    0.000
497.287;  -15.093;  -15.698;    0.000
497.876;  -11.722;  -21.915;    0.000
498.466;  -12.355;  -15.181;    0.000
499.055;  -17.979;  -21.164;    0.000
499.645;  -14.503;  -13.748;    0.000
500.234;  -17.225;  -26.098;    0.000
500.823;  -18.474;  -12.998;    0.000
501.412;   -7.599;  -18.397;    0.000
502.001;  -15.528;  -14.798;    0.000
502.591;  -14.123;  -19.714;    0.000
503.180;   -8.625;  -15.364;    0.000
503.769;  -14.941;  -24.031;    0.000
504.358;  -13.172;  -10.798;    0.000
504.947;   -3.890;  -23.648;    0.000
505.536;  -10.442;  -16.831;    0.000
506.125;  -17.958;  -19.264;    0.000
506.714;  -12.924;  -10.864;    0.000
507.303;  -12.118;  -23.964;    0.000
507.891;  -10.035;  -12.164;    0.000
508.480;  -18.037;  -17.648;    0.000
509.069;   -9.473;  -14.164;    0.000
509.658;  -10.953;  -16.748;    0.000
510.246;   -9.567;  -18.731;    0.000
510.835;  -16.128;  -23.481;    0.000
511.424;  -15.525;  -16.464;    0.000
512.012;   -2.971;  -21.632;    0.000
512.601;  -15.994;  -20.531;    0.000
513.189;  -16.179;  -18.681;    0.000
513.778;  -13.247;  -14.531;    0.000
514.366;  -14.553;  -30.148;    0.000
514.955;  -11.262;  -17.498;    0.000
515.543;  -21.022;  -18.681;    0.000
516.132;  -19.511;  -15.298;    0.000
516.720;  -15.454;  -18.965;    0.000
517.308;  -15.319;  -19.015;    0.000
517.896;  -17.467;  -17.248;    0.000
518.485;  -12.438;  -18.831;    0.000
519.073;  -18.796;  -21.697;    0.000
519.661;   -9.032;  -13.882;    0.000
520.249;  -19.434;  -23.365;    0.000
520.837;  -18.008;  -15.364;    0.000
521.425;  -21.516;  -21.315;    0.000
522.013;  -13.750;  -15.098;    0.000
522.601;  -11.539;  -19.915;    0.000
523.189;  -21.920;  -14.815;    0.000
523.777;  -17.109;  -22.414;    0.000
524.365;  -26.581;  -19.147;    0.000
524.953;  -15.998;  -20.132;    0.000
525.541;  -17.109;  -13.181;    0.000
526.129;  -22.323;  -20.348;    0.000
526.716;  -18.207;  -25.665;    0.000
527.304;  -21.199;  -12.348;    0.000
527.892;  -18.043;  -24.781;    0.000
528.479;  -19.748;  -17.815;    0.000
529.067;  -16.191;  -17.348;    0.000
529.655;  -20.778;  -18.298;    0.000
530.242;  -20.875;  -25.364;    0.000
530.830;  -19.796;  -16.182;    0.000
531.417;  -16.683;   -7.098;    0.000
532.005;  -16.004;  -20.015;    0.000
532.592;   -4.425;  -14.699;    0.000
533.179;    1.075;  -16.365;    0.000
533.767;   -4.122;  -11.864;    0.000
534.354;    0.450;  -25.098;    0.000
534.941;   -4.983;  -16.065;    0.000
535.529;   -4.357;  -22.915;    0.000
536.116;  -11.477;  -14.831;    0.000
536.703;  -12.772;  -19.982;    0.000
537.290;  -14.362;  -20.298;    0.000
537.877;  -15.079;  -21.582;    0.000
538.464;  -13.736;  -23.231;    0.000
539.051;   -9.811;  -28.532;    0.000
539.638;  -11.173;   -5.432;    0.000
540.225;   -4.799;  -21.632;    0.000
540.812;   -6.609;  -17.699;    0.000
541.399;   -7.308;  -20.648;    0.000
541.986;   -7.982;  -16.732;    0.000
542.573;   -9.045;  -18.648;    0.000
543.160;  -14.787;  -14.348;    0.000
543.746;  -24.802;  -22.766;    0.000
544.333;  -17.429;  -12.932;    0.000
544.920;  -16.420;  -23.382;    0.000
545.506;  -13.764;  -20.548;    0.000
546.093;  -17.520;  -23.131;    0.000
546.680;  -15.385;  -17.881;    0.000
547.266;  -18.673;  -19.299;    0.000
547.853;  -23.243;  -18.965;    0.000
548.439;  -19.305;  -18.449;    0.000
549.025;  -22.071;   -6.132;    0.000
549.612;  -20.969;  -20.348;    0.000
550.198;  -22.492;  -15.649;    0.000
550.785;  -19.648;  -24.948;    0.000
551.371;  -21.863;  -19.149;    0.000
551.957;  -17.303;  -18.199;    0.000
552.543;  -19.778;  -18.614;    0.000
553.130;  -18.301;  -18.831;    0.000
553.716;  -13.629;  -16.232;    0.000
554.302;  -20.197;  -24.316;    0.000
554.888;  -17.365;  -23.899;    0.000
555.474;  -15.859;  -23.815;    0.000
556.060;  -19.082;   -9.265;    0.000
556.646;  -15.494;  -18.132;    0.000
557.232;  -17.378;  -16.582;    0.000
557.818;  -23.738;  -25.899;    0.000
558.404;  -21.476;  -14.849;    0.000
558.990;  -23.127;  -14.464;    0.000
559.576;  -20.751;  -20.098;    0.000
560.161;  -15.359;  -22.648;    0.000
560.747;  -22.770;  -17.831;    0.000
561.333;  -18.759;  -20.399;    0.000
561.918;  -15.635;  -20.131;    0.000
562.504;  -18.007;  -21.315;    0.000
563.090;  -18.278;  -12.832;    0.000
563.675;  -25.660;  -30.849;    0.000
564.261;  -20.614;  -20.132;    0.000
564.846;  -18.145;  -14.448;    0.000
565.432;  -13.115;  -19.998;    0.000
566.017;  -17.180;  -13.715;    0.000
566.603;  -11.039;   -9.765;    0.000
567.188;  -11.915;  -25.532;    0.000
567.773;  -13.566;  -15.766;    0.000
568.359;  -15.852;  -20.116;    0.000
568.944;  -18.958;  -19.982;    0.000
569.529;  -16.343;  -19.765;    0.000
570.114;  -18.965;  -17.433;    0.000
570.699;  -14.991;  -27.632;    0.000
571.284;  -14.190;  -15.348;    0.000
571.870;  -21.381;  -22.549;    0.000
572.455;  -15.588;  -19.166;    0.000
573.040;  -11.804;  -28.531;    0.000
573.625;  -11.907;  -18.699;    0.000
574.209;   -3.010;  -20.599;    0.000
574.794;    0.075;  -12.681;    0.000
575.379;    9.326;  -24.349;    0.000
575.964;   13.735;  -17.099;    0.000
576.549;    2.813;  -21.382;    0.000
577.134;    3.517;  -23.049;    0.000
577.718;   13.478;  -17.415;    0.000
578.303;    2.553;  -24.715;    0.000
578.888;    1.586;  -28.316;    0.000
579.472;   -3.963;  -17.715;    0.000
580.057;  -13.602;  -20.798;    0.000
580.641;    7.110;  -11.482;    0.000
581.226;    9.126;  -28.549;    0.000
581.810;   -1.412;  -20.482;    0.000
582.395;    3.811;  -21.832;    0.000
582.979;   26.048;  -24.648;    0.000
583.564;  318.828;  -24.915;    0.000
584.148;  682.803;  -19.815;    0.000
584.732;  744.645;  -24.681;    0.000
585.317;  755.336;  -17.198;    0.000
585.901;  765.079;  -21.981;    0.000
586.485;  822.590;  -25.949;    0.000
587.069;  903.191;  -22.365;    0.000
587.653;  815.391;  -25.582;    0.000
588.237;  440.510;  -24.315;    0.000
588.821;  257.442;  -19.132;    0.000
589.405;  270.629;   -5.099;    0.000
589.989;  225.218;  -18.432;    0.000
590.573;  188.200;  -27.382;    0.000
591.157;   75.983;  -20.131;    0.000
591.741;   13.676;  -21.432;    0.000
592.325;   32.647;  -22.266;    0.000
592.909;  213.249;  -17.781;    0.000
593.492;  372.580;  -17.432;    0.000
594.076;  388.452;  -27.598;    0.000
594.660;  400.463;  -21.849;    0.000
595.244;  401.581;  -29.382;    0.000
595.827;  418.706;   -9.765;    0.000
596.411;  458.738;  -21.066;    0.000
596.994;  379.082;  -28.582;    0.000
597.578;  184.379;  -24.132;    0.000
598.161;  113.562;  -24.181;    0.000
598.745;  102.727;  -29.265;    0.000
599.328;   99.004;  -20.098;    0.000
599.911;   77.552;  -26.032;    0.000
600.495;   35.032;  -22.798;    0.000
601.078;   29.597;  -24.432;    0.000
601.661;   79.863;  -25.232;    0.000
602.245;   98.316;  -18.382;    0.000
602.828;   97.099;  -19.749;    0.000
603.411;  102.597;  -25.149;    0.000
603.994;   97.051;  -20.564;    0.000
604.577;  101.027;  -20.132;    0.000
605.160;   93.355;  -20.682;    0.000
605.743;  203.676;  -22.082;    0.000
606.326;  330.012;  -18.132;    0.000
606.909;  357.351;  -28.032;    0.000
607.492;  407.138;  -26.432;    0.000
608.075;  639.881;  -23.949;    0.000
608.658;  803.962;  -26.265;    0.000
609.240;  812.846;  -28.349;    0.000
609.823;  759.640;  -18.732;    0.000
610.406;  566.508;  -15.565;    0.000
610.989;  457.894;  -21.415;    0.000
611.571;  435.203;  -22.216;    0.000
612.154;  372.608;  -26.365;    0.000
612.736;  517.936;  -23.016;    0.000
613.319;  718.559;  -18.665;    0.000
613.901;  736.795;  -26.432;    0.000
614.484;  797.906;  -21.798;    0.000
615.066;  891.663;  -31.448;    0.000
615.649;  886.523;  -17.983;    0.000
616.231;  842.409;  -30.649;    0.000
616.813;  673.691;  -29.448;    0.000
617.396;  311.581;  -27.447;    0.000
617.978;  239.339;  -22.563;    0.000
618.560;  229.028;  -29.281;    0.000
619.142;  157.772;  -20.864;    0.000
619.724;  142.622;  -24.814;    0.000
620.306;  244.932;  -13.548;    0.000
620.889;  270.671;  -20.948;    0.000
621.471;  261.703;  -19.998;    0.000
622.053;  261.172;  -25.615;    0.000
622.635;  253.698;  -17.215;    0.000
623.216;  237.299;  -23.132;    0.000
623.798;  206.546;  -22.631;    0.000
624.380;  147.259;  -26.182;    0.000
624.962;  229.464;  -20.398;    0.000
625.544;  310.667;  -28.098;    0.000
626.125;  364.980;  -22.549;    0.000
626.707;  383.088;  -24.465;    0.000
627.289;  384.903;  -21.981;    0.000
627.870;  374.753;  -19.315;    0.000
628.452;  371.588;  -29.682;    0.000
629.034;  402.767;  -26.582;    0.000
629.615;  311.000;  -27.798;    0.000
630.197;  242.001;  -29.532;    0.000
630.778;  223.641;  -21.515;    0.000
631.359;  292.361;  -30.531;    0.000
631.941;  547.392;  -13.415;    0.000
632.522;  766.512;  -20.849;    0.000
633.103;  788.961;  -19.765;    0.000
633.685;  748.447;  -27.881;    0.000
634.266;  700.633;  -27.948;    0.000
634.847;  691.596;  -24.898;    0.000
635.428;  640.985;  -21.031;    0.000
636.009;  526.022;  -24.398;    0.000
636.590;  447.352;  -21.948;    0.000
637.171;  546.894;  -32.030;    0.000
637.752;  666.810;  -17.531;    0.000
638.333;  955.408;  -24.564;    0.000
638.914; 1622.346;  -21.431;    0.000
639.495; 2104.000;  -27.731;    0.000
640.076; 2166.215;  -18.681;    0.000
640.657; 2106.682;  -24.398;    0.000
641.238; 1933.432;  -23.515;    0.000
641.818; 1665.882;  -20.431;    0.000
642.399; 1521.782;  -17.815;    0.000
642.980; 1185.515;  -30.715;    0.000
643.560;  413.266;  -26.898;    0.000
644.141;  257.866;  -25.698;    0.000
644.721;  229.449;  -25.281;    0.000
645.302;  208.466;  -25.898;    0.000
645.882;  190.099;  -24.731;    0.000
646.463;  158.533;  -28.331;    0.000
647.043;  130.066;  -19.331;    0.000
647.624;   95.766;  -28.465;    0.000
648.204;   86.950;  -24.015;    0.000
648.784;  119.283;  -27.315;    0.000
649.365;  490.983;  -22.948;    0.000
649.945;  674.616;  -31.731;    0.000
650.525;  708.700;  -19.765;    0.000
651.105;  722.367;  -23.848;    0.000
651.685;  766.633;  -19.831;    0.000
652.265;  868.800;  -19.931;    0.000
652.845;  860.734;  -20.915;    0.000
653.425;  675.800;  -24.898;    0.000
654.005;  358.417;  -24.848;    0.000
654.585;  305.967;  -21.215;    0.000
655.165;  288.067;  -12.748;    0.000
655.745;  248.784;  -24.498;    0.000
656.325;  134.017;  -22.232;    0.000
656.905;   78.118;  -30.015;    0.000
657.484;   59.401;  -19.365;    0.000
658.064;   93.634;  -27.365;    0.000
658.644;  250.001;  -25.632;    0.000
659.223;  294.418;  -29.182;    0.000
659.803;  299.035;  -27.432;    0.000
660.382;  297.935;  -29.065;    0.000
660.962;  298.851;  -22.882;    0.000
661.541;  287.618;  -24.415;    0.000
662.121;  265.152;  -28.648;    0.000
662.700;  157.768;  -21.215;    0.000
663.280;   41.285;  -16.715;    0.000
663.859;    4.719;  -24.565;    0.000
664.438;    1.352;  -19.098;    0.000
665.017;    7.002;  -28.732;    0.000
665.597;   21.669;  -23.732;    0.000
666.176;  229.902;  -27.065;    0.000
666.755;  473.019;  -15.282;    0.000
667.334;  514.302;  -27.698;    0.000
667.913;  528.802;  -22.082;    0.000
668.492;  516.836;  -24.215;    0.000
669.071;  508.119;  -20.215;    0.000
669.650;  504.486;  -33.198;    0.000
670.229;  610.386;  -17.732;    0.000
670.808;  454.020;  -26.198;    0.000
671.387;  331.186;  -25.982;    0.000
671.965;  322.386;  -31.215;    0.000
672.544;  314.203;  -21.298;    0.000
673.123;  304.570;  -19.998;    0.000
673.702;  281.270;  -28.898;    0.000
674.280;  201.553;  -24.182;    0.000
674.859;   32.720;  -19.115;    0.000
675.437;   -6.980;  -33.365;    0.000
676.016;  -19.463;  -26.565;    0.000
676.594;  -15.930;  -21.048;    0.000
677.173;  -15.246;  -29.115;    0.000
677.751;  -23.313;  -26.048;    0.000
678.330;  -26.046;  -23.398;    0.000
678.908;  -19.046;  -27.032;    0.000
679.486;  -19.979;  -17.315;    0.000
680.065;  -19.329;  -30.365;    0.000
680.643;  -27.296;  -23.615;    0.000
681.221;  -25.279;  -25.032;    0.000
681.799;  -24.745;  -28.082;    0.000
682.377;  -24.179;  -27.748;    0.000
682.955;  -17.145;  -24.582;    0.000
683.533;  -21.662;  -32.748;    0.000
684.111;  -28.462;  -28.615;    0.000
684.689;  -21.162;  -26.815;    0.000
685.267;  -22.212;  -16.865;    0.000
685.845;  -22.912;  -34.682;    0.000
686.423;  -19.378;  -26.082;    0.000
687.001;  -17.111;  -29.082;    0.000
687.579;  -24.311;  -25.282;    0.000
688.156;  -25.111;  -28.732;    0.000
688.734;  -20.978;  -25.648;    0.000
689.312;  -15.678;  -26.365;    0.000
689.889;  -13.328;  -19.882;    0.000
690.467;   -6.911;  -30.648;    0.000
691.044;   88.156;  -30.215;    0.000
691.622;  364.073;  -26.648;    0.000
692.199;  445.406;  -24.765;    0.000
692.777;  461.656;  -29.898;    0.000
693.354;  484.856;  -27.782;    0.000
693.932;  468.140;  -33.549;    0.000
694.509;  432.656;  -20.515;    0.000
695.086;  407.457;  -28.465;    0.000
695.663;  221.907;  -23.949;    0.000
696.241;   36.457;  -27.632;    0.000
696.818;  -10.577;  -22.165;    0.000
697.395;  -17.443;  -37.499;    0.000
697.972;  -12.510;  -26.949;    0.000
698.549;  -19.610;  -33.365;    0.000
699.126;  -20.976;  -24.765;    0.000
699.703;  -18.893;  -32.549;    0.000
700.280;   -7.059;  -33.165;    0.000
700.857;   28.574;  -27.615;    0.000
701.434;  302.574;  -28.932;    0.000
702.010;  752.308;  -28.082;    0.000
702.587;  885.024;  -25.182;    0.000
703.164;  902.841;  -31.465;    0.000
703.741;  902.474;  -27.149;    0.000
704.317;  894.375;  -22.932;    0.000
704.894;  833.025;  -28.149;    0.000
705.471;  733.808;  -30.982;    0.000
706.047;  346.991;  -23.665;    0.000
706.624;   45.042;  -31.649;    0.000
707.200;    2.975;  -22.449;    0.000
707.776;  -17.425;  -34.282;    0.000
708.353;  -18.992;  -21.732;    0.000
708.929;  -18.625;  -25.515;    0.000
709.506;  -20.958;  -20.732;    0.000
710.082;  -25.041;  -27.782;    0.000
710.658;  -24.991;  -25.849;    0.000
711.234;  -23.524;  -31.965;    0.000
711.810;  -26.191;  -18.965;    0.000
712.387;  -26.208;  -31.299;    0.000
712.963;  -25.641;  -21.765;    0.000
713.539;  -28.307;  -32.049;    0.000
714.115;  -31.357;  -33.482;    0.000
714.691;  -22.324;  -36.482;    0.000
715.267;  -18.574;  -21.532;    0.000
715.842;   33.243;  -32.399;    0.000
716.418;   71.976;  -25.565;    0.000
716.994;   76.793;  -27.982;    0.000
717.570;   74.193;  -19.449;    0.000
718.146;   77.177;  -23.832;    0.000
718.721;   68.893;  -24.732;    0.000
719.297;   65.760;  -24.532;    0.000
719.873;   40.844;  -24.632;    0.000
720.448;   -5.540;  -36.349;    0.000
721.024;  -24.323;  -24.115;    0.000
721.599;  -20.223;  -30.799;    0.000
722.175;  -15.789;  -30.149;    0.000
722.750;  106.161;  -33.149;    0.000
723.325;  280.944;  -27.099;    0.000
723.901;  322.011;  -26.099;    0.000
724.476;  323.594;  -28.415;    0.000
725.051;  333.328;  -32.382;    0.000
725.627;  327.694;  -29.665;    0.000
726.202;  304.361;  -27.782;    0.000
726.777;  266.561;  -27.282;    0.000
727.352;  118.361;  -26.882;    0.000
727.927;   -8.922;  -32.715;    0.000
728.502;  -23.822;  -25.715;    0.000
729.077;  -25.488;  -34.015;    0.000
729.652;  -30.288;  -27.715;    0.000
730.227;  -19.638;  -23.682;    0.000
730.802;  -28.222;  -37.432;    0.000
731.377;  -29.288;  -27.515;    0.000
731.951;  -23.988;  -20.949;    0.000
732.526;  -23.421;  -26.999;    0.000
733.101;  -26.354;  -37.849;    0.000
733.676;  -25.171;  -28.615;    0.000
734.250;  -33.954;  -32.999;    0.000
734.825;  -28.738;  -22.432;    0.000
735.399;  -31.104;  -26.499;    0.000
735.974;  -26.454;  -21.999;    0.000
736.548;  -23.221;  -30.849;    0.000
737.123;  -37.154;  -29.099;    0.000
737.697;  -30.104;  -28.349;    0.000
738.272;  -33.737;  -32.832;    0.000
738.846;  -27.020;  -25.732;    0.000
739.420;  -31.687;  -28.399;    0.000
739.994;  -30.920;  -31.849;    0.000
740.569;  -23.370;  -26.866;    0.000
741.143;  -33.437;  -36.632;    0.000
741.717;  -22.603;  -30.332;    0.000
742.291;   28.347;  -38.166;    0.000
742.865;   59.497;  -26.966;    0.000
743.439;   63.347;  -28.149;    0.000
744.013;   60.247;  -32.899;    0.000
744.587;   69.931;  -42.366;    0.000
745.161;   60.781;  -30.299;    0.000
745.735;   59.147;  -33.066;    0.000
746.308;   41.597;  -21.932;    0.000
746.882;    0.814;  -33.832;    0.000
747.456;  -10.836;  -29.116;    0.000
748.030;   -5.919;  -31.349;    0.000
748.603;   -6.486;  -24.932;    0.000
749.177;   -4.569;  -33.449;    0.000
749.751;   -9.469;  -28.399;    0.000
750.324;  -14.335;  -36.716;    0.000
750.898;  -11.035;  -29.349;    0.000
751.471;  -13.718;  -28.099;    0.000
752.044;  -11.802;  -29.716;    0.000
752.618;   -8.102;  -27.682;    0.000
753.191;   -8.601;  -16.699;    0.000
753.764;   -4.735;  -31.732;    0.000
754.338;   -1.668;  -23.982;    0.000
754.911;  -13.801;  -28.366;    0.000
755.484;  -10.384;  -29.432;    0.000
756.057;   -6.634;  -29.616;    0.000
756.630;  -18.351;  -27.332;    0.000
757.203;  -26.118;  -30.366;    0.000
757.776;  -38.317;  -30.616;    0.000
758.349;  -29.384;  -31.399;    0.000
758.922;  -31.617;  -26.966;    0.000
759.495;  -36.017;  -33.699;    0.000
760.068;  -38.467;  -30.849;    0.000
760.641;  -33.934;  -35.949;    0.000
761.214;  -36.884;  -29.732;    0.000
761.786;  -31.617;  -33.299;    0.000
762.359;  -35.600;  -31.182;    0.000
762.932;  -39.700;  -29.316;    0.000
763.504;  -33.117;  -32.199;    0.000
764.077;  -34.033;  -26.766;    0.000
764.649;  -32.483;  -30.166;    0.000
765.222;  -26.616;  -40.332;    0.000
765.794;  -27.633;  -31.166;    0.000
766.367;  -30.283;  -29.482;    0.000
766.939;  -28.849;  -24.266;    0.000
767.511;  -29.383;  -26.932;    0.000
768.084;  -27.933;  -32.599;    0.000
768.656;  -36.016;  -35.166;    0.000
769.228;  -27.366;  -23.866;    0.000
769.800;  -28.349;  -30.399;    0.000
770.373;  -33.166;  -25.066;    0.000
770.945;  -30.082;  -32.966;    0.000
771.517;  -35.715;  -28.099;    0.000
772.089;  -26.182;  -31.082;    0.000
772.661;  -30.232;  -25.282;    0.000
773.233;  -27.132;  -32.749;    0.000
773.805;  -29.315;  -28.032;    0.000
774.376;  -31.965;  -31.349;    0.000
774.948;  -25.982;  -25.133;    0.000
775.520;  -38.631;  -32.216;    0.000
776.092;  -31.381;  -31.933;    0.000
776.663;  -31.648;  -28.549;    0.000
777.235;  -31.598;  -28.249;    0.000
777.807;  -31.281;  -27.266;    0.000
778.378;  -31.114;  -20.833;    0.000
778.950;  -32.514;  -28.516;    0.000
779.521;  -28.148;  -24.299;    0.000
780.093;  -27.664;  -33.933;    0.000
780.664;  -32.864;  -30.116;    0.000
781.235;  -33.781;  -35.766;    0.000
781.807;  -29.831;  -30.866;    0.000
782.378;  -28.464;  -24.466;    0.000
782.949;  -34.864;  -30.999;    0.000
783.521;  -26.697;  -33.733;    0.000
784.092;  -39.080;  -26.399;    0.000
784.663;  -33.230;  -26.416;    0.000
785.234;  -29.397;  -24.549;    0.000
785.805;  -32.830;  -33.016;    0.000
786.376;  -25.680;  -27.416;    0.000
786.947;  -37.513;  -32.833;    0.000
787.518;  -28.863;  -33.516;    0.000
788.089;  -36.863;  -32.183;    0.000
788.660;  -31.763;  -30.383;    0.000
789.230;  -34.613;  -35.983;    0.000
789.801;  -32.913;  -25.633;    0.000
790.372;  -32.646;  -31.166;    0.000
790.943;  -32.446;  -28.616;    0.000
791.513;  -33.929;  -35.633;    0.000
792.084;  -36.012;  -33.266;    0.000
792.654;  -29.796;  -37.099;    0.000
793.225;  -29.729;  -29.099;    0.000
793.795;  -25.379;  -32.299;    0.000
794.366;  -33.179;  -33.933;    0.000
794.936;  -31.312;  -33.249;    0.000
795.507;  -23.362;  -34.666;    0.000
796.077;  -28.878;  -34.499;    0.000
796.647;  -32.228;  -38.033;    0.000
797.217;  -39.145;  -32.783;    0.000
797.788;  -29.478;  -29.016;    0.000
798.358;  -31.728;  -33.616;    0.000
798.928;  -40.561;  -32.366;    0.000
799.498;  -33.428;  -35.249;    0.000
800.068;  -36.278;  -29.199;    0.000
800.638;  -31.161;  -36.633;    0.000
801.208;  -28.961;  -25.916;    0.000
801.778;  -33.961;  -41.199;    0.000
802.348;  -35.227;  -32.416;    0.000
802.917;  -34.294;  -31.216;    0.000
803.487;  -28.544;  -23.966;    0.000
804.057;  -25.727;  -37.433;    0.000
804.627;  -33.310;  -34.999;    0.000
805.196;  -36.360;  -34.983;    0.000
805.766;  -36.410;  -30.099;    0.000
806.335;  -29.910;  -41.199;    0.000
806.905;  -30.293;  -31.733;    0.000
807.475;  -38.493;  -31.216;    0.000
808.044;  -26.627;  -25.966;    0.000
808.613;  -27.710;  -32.699;    0.000
809.183;  -32.893;  -30.083;    0.000
809.752;  -29.460;  -36.616;    0.000
810.321;  -31.076;  -32.583;    0.000
810.891;  -32.510;  -40.583;    0.000
811.460;  -39.493;  -30.549;    0.000
812.029;  -22.826;  -33.499;    0.000
812.598;  -30.393;  -34.049;    0.000
813.167;  -25.443;  -29.199;    0.000
813.736;  -22.176;  -28.799;    0.000
814.305;  -29.426;  -30.366;    0.000
814.874;  -27.376;  -28.116;    0.000
815.443;  -32.675;  -37.266;    0.000
816.012;  -28.759;  -30.533;    0.000
816.581;  -24.742;  -37.016;    0.000
817.150;  -31.025;  -29.783;    0.000
817.718;  -34.025;  -32.616;    0.000
818.287;  -42.525;  -31.266;    0.000
818.856;  -35.975;  -40.133;    0.000
819.424;  -40.275;  -33.816;    0.000
819.993;  -32.525;  -42.950;    0.000
820.562;  -26.791;  -29.466;    0.000
821.130;  -33.425;  -39.633;    0.000
821.698;  -41.408;  -32.066;    0.000
822.267;  -34.974;  -34.283;    0.000
822.835;  -26.841;  -31.050;    0.000
823.404;  -39.124;  -38.033;    0.000
823.972;  -30.808;  -32.300;    0.000
824.540;  -26.324;  -40.750;    0.000
825.108;  -32.124;  -29.600;    0.000
825.677;  -30.224;  -28.050;    0.000
826.245;  -31.424;  -32.866;    0.000
826.813;  -26.907;  -40.316;    0.000
827.381;  -27.840;  -27.450;    0.000
827.949;  -28.340;  -35.033;    0.000
828.517;  -33.140;  -29.833;    0.000
829.085;  -34.707;  -36.066;    0.000
829.653;  -25.957;  -34.616;    0.000
830.220;  -27.007;  -38.816;    0.000
830.788;  -26.490;  -38.650;    0.000
831.356;  -30.523;  -43.883;    0.000
831.924;  -30.656;  -22.233;    0.000
832.491;  -34.273;  -34.350;    0.000
833.059;  -30.123;  -32.000;    0.000
833.627;  -35.923;  -31.250;    0.000
834.194;  -37.989;  -21.683;    0.000
834.762;  -30.323;  -44.883;    0.000
835.329;  -31.589;  -32.416;    0.000
835.897;  -25.322;  -32.133;    0.000
836.464;  -11.706;  -28.116;    0.000
837.031;   -9.689;  -32.900;    0.000
837.599;   -1.472;  -25.933;    0.000
838.166;    3.111;  -32.650;    0.000
838.733;   -9.439;  -26.016;    0.000
839.300;   -3.889;  -35.783;    0.000
839.867;   -3.722;  -27.400;    0.000
840.434;  -20.822;  -34.000;    0.000
841.001;  -26.938;  -27.850;    0.000
841.568;  -28.805;  -33.216;    0.000
842.135;  -26.055;  -36.850;    0.000
842.702;  -23.438;  -39.716;    0.000
843.269;  -32.788;  -33.016;    0.000
843.836;  -30.738;  -37.166;    0.000
844.403;  -26.621;  -28.083;    0.000
844.970;  -40.788;  -36.666;    0.000
845.536;  -30.338;  -35.016;    0.000
846.103;  -33.138;  -38.516;    0.000
846.670;  -36.421;  -32.133;    0.000
847.236;  -31.071;  -38.483;    0.000
847.803;  -23.437;  -38.100;    0.000
848.369;  -19.837;  -39.650;    0.000
848.936;  -14.254;  -33.933;    0.000
849.502;  -17.504;  -33.683;    0.000
850.069;  -10.920;  -35.800;    0.000
850.635;  -19.687;  -32.733;    0.000
851.201;  -21.620;  -28.316;    0.000
851.767;  -24.720;  -30.783;    0.000
852.334;  -24.437;  -38.116;    0.000
852.900;  -33.887;  -35.483;    0.000
853.466;  -32.653;  -37.300;    0.000
854.032;  -29.253;  -36.583;    0.000
854.598;  -38.570;  -31.050;    0.000
855.164;  -37.836;  -34.133;    0.000
855.730;  -32.053;  -35.167;    0.000
856.296;  -30.086;  -40.750;    0.000
856.862;  -32.719;  -41.467;    0.000
857.428;  -28.969;  -37.717;    0.000
857.993;  -30.002;  -34.850;    0.000
858.559;  -28.786;  -42.133;    0.000
859.125;  -31.102;  -36.633;    0.000
859.690;  -29.502;  -36.533;    0.000
860.256;  -26.402;  -35.683;    0.000
860.822;  -30.619;  -35.783;    0.000
861.387;  -32.319;  -38.850;    0.000
861.953;  -29.802;  -37.317;    0.000
862.518;  -27.518;  -29.050;    0.000
863.083;  -30.302;  -38.400;    0.000
863.649;  -23.452;  -32.500;    0.000
864.214;  -16.235;  -28.850;    0.000
864.779;  -15.185;  -34.083;    0.000
865.345;  -18.968;  -31.400;    0.000
865.910;  -19.668;  -33.150;    0.000
866.475;  -15.784;  -36.900;    0.000
867.040;  -19.518;  -33.767;    0.000
867.605;  -23.718;  -33.967;    0.000
868.170;  -30.434;  -32.350;    0.000
868.735;  -28.551;  -32.900;    0.000
869.300;  -32.417;  -35.367;    0.000
869.865;  -30.717;  -40.317;    0.000
870.430;  -28.217;  -35.800;    0.000
870.995;  -32.800;  -33.867;    0.000
871.559;  -42.834;  -30.350;    0.000
872.124;  -38.400;  -39.817;    0.000
872.689;  -29.517;  -37.883;    0.000
873.253;  -33.083;  -43.483;    0.000
873.818;  -38.183;  -36.950;    0.000
874.382;  -35.700;  -44.500;    0.000
874.947;  -37.000;  -38.733;    0.000
875.511;  -30.850;  -36.050;    0.000
876.076;  -35.050;  -28.983;    0.000
876.640;  -22.383;  -36.100;    0.000
877.205;  -27.817;  -39.317;    0.000
877.769;  -20.983;  -35.300;    0.000
878.333;  -21.267;  -33.000;    0.000
878.897;  -15.167;  -40.950;    0.000
879.461;  -16.717;  -32.233;    0.000
880.026;  -19.550;  -34.383;    0.000
880.590;  -20.150;  -27.017;    0.000
881.154;  -25.700;  -35.433;    0.000
881.718;  -32.633;  -29.367;    0.000
882.282;  -39.283;  -35.633;    0.000
882.846;  -38.367;  -33.133;    0.000
883.409;  -38.550;  -44.267;    0.000
883.973;  -33.650;  -24.367;    0.000
884.537;  -28.050;  -41.950;    0.000
885.101;  -35.983;  -32.950;    0.000
885.664;  -21.883;  -39.700;    0.000
886.228;  -29.750;  -34.733;    0.000
886.792;  -30.217;  -39.017;    0.000
887.355;  -34.850;  -35.783;    0.000
887.919;  -35.233;  -41.633;    0.000
888.482;  -35.883;  -31.517;    0.000
889.046;  -32.750;  -42.200;    0.000
889.609;  -36.633;  -36.567;    0.000
890.172;  -43.900;  -41.483;    0.000
890.736;  -37.550;  -36.000;    0.000
891.299;  -32.450;  -35.500;    0.000
891.862;  -37.233;  -35.067;    0.000
892.425;  -34.917;  -40.517;    0.000
892.988;  -41.550;  -37.933;    0.000
893.552;  -37.783;  -38.567;    0.000
894.115;  -35.250;  -33.950;    0.000
894.678;  -38.200;  -45.317;    0.000
895.241;  -38.900;  -33.733;    0.000
895.803;  -39.150;  -35.567;    0.000
896.366;  -36.933;  -31.500;    0.000
896.929;  -34.250;  -36.850;    0.000
897.492;  -35.533;  -37.683;    0.000
898.055;  -35.267;  -32.833;    0.000
898.617;  -35.733;  -33.883;    0.000
899.180;  -40.333;  -38.000;    0.000
899.743;  -37.267;  -39.317;    0.000
900.305;  -34.083;  -43.633;    0.000
900.868;  -39.267;  -39.733;    0.000
901.430;  -35.300;  -41.583;    0.000
901.993;  -38.433;  -33.100;    0.000
902.555;  -32.983;  -38.333;    0.000
903.117;  -36.167;  -29.700;    0.000
903.680;  -39.217;  -39.100;    0.000
904.242;  -36.133;  -39.717;    0.000
904.804;  -37.033;  -38.717;    0.000
905.366;  -37.500;  -34.233;    0.000
905.929;  -35.317;  -32.267;    0.000
906.491;  -31.133;  -29.600;    0.000
907.053;  -41.317;  -38.850;    0.000
907.615;  -37.117;  -37.967;    0.000
908.177;  -33.500;  -37.517;    0.000
908.739;  -40.333;  -33.317;    0.000
909.300;  -41.517;  -40.717;    0.000
909.862;  -40.050;  -34.117;    0.000
910.424;  -43.900;  -33.433;    0.000
910.986;  -32.783;  -37.533;    0.000
911.547;  -39.900;  -40.150;    0.000
912.109;  -39.067;  -32.650;    0.000
912.671;  -35.083;  -41.550;    0.000
913.232;  -41.167;  -35.067;    0.000
913.794;  -40.167;  -32.133;    0.000
914.355;  -36.017;  -33.067;    0.000
914.917;  -32.450;  -32.167;    0.000
915.478;  -34.833;  -36.750;    0.000
916.039;  -37.983;  -30.833;    0.000
916.601;  -31.817;  -29.383;    0.000
917.162;  -34.200;  -41.183;    0.000
917.723;  -35.217;  -30.600;    0.000
918.284;  -39.783;  -37.683;    0.000
918.845;  -41.467;  -32.383;    0.000
919.407;  -33.650;  -40.250;    0.000
919.968;  -42.667;  -38.367;    0.000
920.529;  -43.300;  -41.617;    0.000
921.090;  -30.350;  -26.233;    0.000
921.650;  -32.333;  -42.950;    0.000
922.211;  -37.317;  -41.167;    0.000
922.772;  -40.300;  -41.450;    0.000
923.333;  -44.233;  -26.750;    0.000
923.894;  -35.850;  -39.500;    0.000
924.454;  -41.900;  -33.417;    0.000
925.015;  -33.567;  -35.283;    0.000
925.576;  -40.867;  -38.983;    0.000
926.136;  -36.000;  -38.383;    0.000
926.697;  -40.767;  -36.183;    0.000
927.257;  -35.017;  -40.233;    0.000
927.818;  -43.567;  -34.483;    0.000
928.378;  -37.800;  -36.867;    0.000
928.938;  -37.400;  -39.583;    0.000
929.499;  -31.733;  -43.000;    0.000
930.059;  -39.067;  -35.300;    0.000
930.619;  -40.867;  -42.467;    0.000
931.179;  -34.200;  -33.833;    0.000
931.739;  -29.167;  -35.283;    0.000
932.299;  -33.117;  -42.050;    0.000
932.859;  -39.567;  -39.800;    0.000
933.419;  -38.000;  -29.283;    0.000
933.979;  -35.000;  -41.883;    0.000
934.539;  -39.617;  -31.617;    0.000
935.099;  -46.050;  -40.650;    0.000
935.659;  -38.700;  -38.100;    0.000
936.219;  -28.767;  -38.333;    0.000
936.778;  -42.400;  -28.100;    0.000
937.338;  -41.533;  -42.200;    0.000
937.898;  -36.083;  -35.283;    0.000
938.457;  -41.433;  -39.700;    0.000
939.017;  -40.767;  -37.567;    0.000
939.576;  -37.717;  -38.883;    0.000
940.136;  -42.900;  -35.700;    0.000
940.695;  -44.500;  -35.050;    0.000
941.254;  -38.450;  -35.683;    0.000
941.814;  -45.200;  -36.250;    0.000
942.373;  -42.633;  -38.900;    0.000
942.932;  -43.467;  -42.983;    0.000
943.491;  -44.233;  -37.333;    0.000
944.051;  -43.600;  -42.817;    0.000
944.610;  -36.983;  -32.350;    0.000
945.169;  -34.267;  -36.100;    0.000
945.728;  -37.167;  -31.367;    0.000
946.287;  -37.583;  -37.933;    0.000
946.846;  -42.483;  -43.983;    0.000
947.404;  -43.550;  -37.967;    0.000
947.963;  -34.200;  -34.350;    0.000
948.522;  -35.417;  -37.950;    0.000
949.081;  -33.850;  -33.417;    0.000
949.639;  -37.300;  -35.533;    0.000
950.198;  -41.550;  -31.517;    0.000
950.757;  -37.167;  -40.067;    0.000
951.315;  -37.467;  -41.100;    0.000
951.874;  -34.100;  -37.833;    0.000
952.432;  -35.467;  -42.700;    0.000
952.991;  -43.700;  -38.350;    0.000
953.549;  -41.700;  -31.733;    0.000
954.107;  -44.500;  -41.083;    0.000
954.666;  -37.033;  -35.583;    0.000
955.224;  -40.717;  -41.867;    0.000
955.782;  -41.333;  -40.417;    0.000
956.340;  -38.933;  -43.150;    0.000
956.898;  -42.850;  -44.133;    0.000
957.456;  -43.500;  -33.467;    0.000
958.014;  -32.333;  -35.917;    0.000
958.572;  -45.600;  -40.483;    0.000
959.130;  -34.083;  -35.317;    0.000
959.688;  -41.850;  -39.933;    0.000
960.246;  -33.883;  -36.517;    0.000
960.804;  -35.533;  -41.200;    0.000
961.362;  -41.033;  -33.217;    0.000
961.919;  -38.267;  -41.450;    0.000
962.477;  -39.367;  -40.700;    0.000
963.035;  -42.883;  -42.850;    0.000
963.592;  -39.800;  -32.100;    0.000
964.150;  -39.650;  -43.550;    0.000
964.707;  -32.967;  -40.767;    0.000
965.265;  -47.467;  -37.083;    0.000
965.822;  -44.400;  -44.833;    0.000
966.379;  -40.233;  -42.417;    0.000
966.937;  -34.100;  -36.233;    0.000
967.494;  -38.783;  -43.333;    0.000
968.051;  -46.900;  -34.400;    0.000
968.608;  -40.400;  -41.100;    0.000
969.165;  -46.167;  -43.533;    0.000
969.722;  -37.933;  -47.550;    0.000
970.279;  -44.933;  -35.400;    0.000
970.836;  -45.817;  -45.550;    0.000
971.393;  -43.817;  -37.483;    0.000
971.950;  -42.583;  -43.150;    0.000
972.507;  -40.717;  -32.467;    0.000
973.064;  -47.650;  -37.250;    0.000
973.621;  -43.850;  -33.017;    0.000
974.177;  -41.217;  -38.967;    0.000
974.734;  -47.400;  -39.067;    0.000
975.291;  -36.850;  -36.833;    0.000
975.847;  -34.933;  -37.650;    0.000
976.404;  -43.083;  -43.250;    0.000
976.960;  -46.217;  -36.950;    0.000
977.517;  -42.567;  -37.417;    0.000
978.073;  -43.783;  -39.783;    0.000
978.629;  -32.700;  -35.717;    0.000
979.186;  -51.433;  -33.683;    0.000
979.742;  -39.983;  -45.433;    0.000
980.298;  -39.000;  -41.050;    0.000
980.854;  -38.567;  -34.433;    0.000
981.411;  -45.183;  -41.267;    0.000
981.967;  -38.567;  -43.850;    0.000
982.523;  -42.333;  -38.233;    0.000
983.079;  -41.517;  -43.617;    0.000
983.635;  -46.217;  -40.700;    0.000
984.190;  -42.183;  -39.183;    0.000
984.746;  -45.167;  -43.950;    0.000
985.302;  -38.167;  -44.467;    0.000
985.858;  -40.300;  -38.533;    0.000
986.414;  -37.667;  -43.833;    0.000
986.969;  -37.283;  -42.050;    0.000
987.525;  -48.367;  -44.617;    0.000
988.080;  -51.250;  -41.150;    0.000
988.636;  -37.283;  -45.083;    0.000
989.192;  -43.000;  -43.617;    0.000
989.747;  -39.433;  -42.567;    0.000
990.302;  -41.933;  -41.400;    0.000
990.858;  -40.883;  -45.567;    0.000
991.413;  -40.900;  -35.633;    0.000
991.968;  -34.100;  -47.750;    0.000
992.523;  -37.567;  -41.800;    0.000
993.079;  -40.467;  -40.383;    0.000
993.634;  -45.867;  -40.833;    0.000
994.189;  -43.967;  -37.867;    0.000
994.744;  -39.667;  -44.500;    0.000
995.299;  -42.967;  -44.883;    0.000
995.854;  -48.350;  -35.283;    0.000
996.409;  -38.217;  -46.117;    0.000
996.963;  -39.117;  -45.400;    0.000
997.518;  -41.683;  -43.400;    0.000
998.073;  -38.550;  -40.017;    0.000
998.628;  -47.700;  -42.317;    0.000
999.182;  -45.117;  -44.250;    0.000
999.737;  -39.767;  -43.750;    0.000
1000.292;  -47.850;  -37.017;    0.000
1000.846;  -43.167;  -39.233;    0.000
1001.401;  -42.600;  -35.500;    0.000
1001.955;  -40.750;  -46.317;    0.000
1002.509;  -45.650;  -30.917;    0.000
1003.064;  -42.517;  -42.050;    0.000
1003.618;  -36.067;  -39.533;    0.000
1004.172;  -44.633;  -35.650;    0.000
1004.726;  -38.883;  -42.633;    0.000
1005.281;  -42.700;  -37.017;    0.000
1005.835;  -47.600;  -43.883;    0.000
1006.389;  -44.933;  -40.133;    0.000
1006.943;  -45.567;  -41.183;    0.000
1007.497;  -40.667;  -45.917;    0.000
1008.051;  -47.583;  -43.950;    0.000
1008.605;  -44.050;  -48.183;    0.000
1009.158;  -52.317;  -37.983;    0.000
1009.712;  -45.967;  -40.217;    0.000
1010.266;  -48.067;  -34.967;    0.000
1010.820;  -43.550;  -39.783;    0.000
1011.373;  -48.233;  -36.483;    0.000
1011.927;  -41.217;  -39.200;    0.000
1012.480;  -42.150;  -38.567;    0.000
1013.034;  -42.850;  -46.183;    0.000
1013.587;  -43.900;  -42.383;    0.000
1014.141;  -40.067;  -43.233;    0.000
1014.694;  -41.650;  -40.950;    0.000
1015.248;  -43.983;  -42.850;    0.000
1015.801;  -42.283;  -38.917;    0.000
1016.354;  -43.883;  -48.833;    0.000
1016.907;  -45.733;  -41.283;    0.000
1017.460;  -46.533;  -46.117;    0.000
1018.013;  -45.400;  -39.900;    0.000
1018.567;  -48.083;  -49.500;    0.000
1019.120;  -39.000;  -39.533;    0.000
1019.672;  -40.333;  -45.567;    0.000
1020.225;  -42.283;  -40.917;    0.000
1020.778;  -41.417;  -41.600;    0.000
1021.331;  -47.117;  -35.033;    0.000
1021.884;  -39.550;  -43.400;    0.000
1022.437;  -44.950;  -36.983;    0.000
1022.989;  -42.533;  -44.667;    0.000
1023.542;  -40.667;  -37.767;    0.000
1024.094;  -41.183;  -41.433;    0.000
1024.647;  -44.300;  -42.117;    0.000
1025.199;  -47.750;  -45.400;    0.000
1025.752;  -43.550;  -34.117;    0.000
1026.304;  -43.183;  -39.300;    0.000
1026.857;  -45.167;  -35.400;    0.000
1027.409;  -37.417;  -39.667;    0.000
1027.961;  -42.883;  -37.750;    0.000
1028.513;  -40.067;  -40.683;    0.000
1029.066;  -46.050;  -43.467;    0.000
1029.618;  -43.550;  -35.733;    0.000
1030.170;  -40.050;  -47.533;    0.000
1030.722;  -48.683;  -39.850;    0.000
1031.274;  -46.400;  -42.950;    0.000
1031.826;  -47.767;  -46.467;    0.000
1032.378;  -35.933;  -42.117;    0.000
1032.929;  -46.883;  -42.633;    0.000
1033.481;  -45.017;  -34.967;    0.000
1034.033;  -42.767;  -43.850;    0.000
1034.585;  -34.267;  -42.117;    0.000
1035.136;  -45.350;  -44.667;    0.000
1035.688;  -43.417;  -45.200;    0.000
1036.239;  -44.633;  -49.450;    0.000
1036.791;  -40.600;  -33.817;    0.000
1037.342;  -40.483;  -54.600;    0.000
1037.894;  -41.867;  -37.117;    0.000
1038.445;  -36.283;  -43.883;    0.000
1038.996;  -49.883;  -39.833;    0.000
1039.548;  -41.967;  -44.750;    0.000
1040.099;  -41.600;  -38.050;    0.000
1040.650;  -46.367;  -46.450;    0.000
1041.201;  -37.767;  -34.800;    0.000
1041.752;  -44.833;  -45.883;    0.000
1042.303;  -44.083;  -38.317;    0.000
1042.854;  -41.767;  -48.750;    0.000
1043.405;  -40.350;  -40.483;    0.000
1043.956;  -43.950;  -45.900;    0.000
1044.507;  -45.717;  -44.467;    0.000
1045.058;  -40.383;  -50.117;    0.000
1045.609;  -41.117;  -42.400;    0.000
1046.159;  -44.200;  -44.700;    0.000
1046.710;  -48.550;  -48.417;    0.000
1047.261;  -39.700;  -43.000;    0.000
1047.811;  -44.683;  -37.683;    0.000
1048.362;  -42.300;  -40.333;    0.000
1048.912;  -34.650;  -29.583;    0.000
1049.463;  -47.500;  -47.533;    0.000
1050.013;  -48.033;  -39.900;    0.000
1050.563;  -42.850;  -45.467;    0.000
1051.114;  -40.800;  -39.967;    0.000
1051.664;  -39.733;  -42.300;    0.000
1052.214;  -46.250;  -41.633;    0.000
1052.764;  -42.550;  -45.483;    0.000
1053.314;  -44.167;  -42.617;    0.000
1053.864;  -45.467;  -42.867;    0.000
1054.414;  -45.550;  -41.800;    0.000
1054.964;  -42.967;  -42.383;    0.000
1055.514;  -40.883;  -36.100;    0.000
1056.064;  -45.267;  -44.017;    0.000
1056.614;  -36.950;  -35.917;    0.000
1057.163;  -49.000;  -45.433;    0.000
1057.713;  -47.333;  -36.133;    0.000
1058.263;  -44.983;  -41.833;    0.000
1058.812;  -41.967;  -39.100;    0.000
1059.362;  -43.783;  -42.833;    0.000
1059.912;  -45.317;  -42.150;    0.000
1060.461;  -49.250;  -45.217;    0.000
1061.010;  -42.350;  -42.350;    0.000
1061.560;  -47.017;  -43.717;    0.000
1062.109;  -39.100;  -40.733;    0.000
1062.658;  -44.400;  -45.283;    0.000
1063.208;  -46.933;  -47.467;    0.000
1063.757;  -51.667;  -42.733;    0.000
1064.306;  -39.767;  -39.433;    0.000
1064.855;  -46.983;  -45.250;    0.000
1065.404;  -36.567;  -45.283;    0.000
1065.953;  -42.650;  -48.033;    0.000
1066.502;  -44.933;  -50.717;    0.000
1067.051;  -45.667;  -48.233;    0.000
1067.600;  -44.583;  -43.667;    0.000
1068.149;  -49.717;  -45.450;    0.000
1068.698;  -49.717;  -40.433;    0.000
1069.246;  -43.683;  -42.867;    0.000
1069.795;  -39.233;  -46.917;    0.000
1070.344;  -50.167;  -48.317;    0.000
1070.892;  -47.933;  -38.800;    0.000
1071.441;  -47.283;  -40.167;    0.000
1071.989;  -46.167;  -42.250;    0.000
1072.538;  -42.450;  -41.883;    0.000
1073.086;  -52.433;  -42.717;    0.000
1073.634;  -40.700;  -46.233;    0.000
1074.183;  -50.150;  -41.750;    0.000
1074.731;  -53.050;  -43.400;    0.000
1075.279;  -47.183;  -46.850;    0.000
1075.827;  -42.700;  -47.600;    0.000
1076.375;  -52.033;  -39.783;    0.000
1076.923;  -46.283;  -38.717;    0.000
1077.471;  -47.900;  -39.017;    0.000
1078.019;  -45.783;  -46.433;    0.000
1078.567;  -41.417;  -43.300;    0.000
1079.115;  -46.933;  -47.983;    0.000
1079.663;  -41.133;  -42.700;    0.000
1080.210;  -45.250;  -45.133;    0.000
1080.758;  -50.283;  -43.267;    0.000
1081.306;  -44.533;  -48.400;    0.000
1081.853;  -43.850;  -46.333;    0.000
1082.401;  -45.950;  -45.883;    0.000
1082.949;  -48.483;  -44.600;    0.000
1083.496;  -46.383;  -48.950;    0.000
1084.043;  -46.433;  -43.700;    0.000
1084.591;  -48.350;  -47.650;    0.000
1085.138;  -52.983;  -50.783;    0.000
1085.685;  -48.333;  -51.417;    0.000
1086.233;  -46.700;  -36.667;    0.000
1086.780;  -45.550;  -41.650;    0.000
1087.327;  -47.750;  -41.917;    0.000
1087.874;  -41.717;  -45.417;    0.000
1088.421;  -49.417;  -39.683;    0.000
1088.968;  -43.400;  -51.600;    0.000
1089.515;  -51.000;  -42.083;    0.000
1090.062;  -47.917;  -43.950;    0.000
1090.609;  -48.200;  -39.217;    0.000
1091.156;  -43.700;  -44.500;    0.000
1091.702;  -51.383;  -40.933;    0.000
1092.249;  -38.400;  -47.400;    0.000
1092.796;  -43.117;  -45.250;    0.000
1093.342;  -45.733;  -42.333;    0.000
1093.889;  -53.000;  -41.833;    0.000
1094.435;  -44.367;  -37.417;    0.000
1094.982;  -50.150;  -44.300;    0.000
1095.528;  -44.933;  -51.183;    0.000
1096.075;  -48.617;  -44.383;    0.000
1096.621;  -45.833;  -46.317;    0.000
1097.167;  -51.200;  -44.600;    0.000
1097.713;  -47.133;  -40.650;    0.000
1098.259;  -46.617;  -42.983;    0.000
1098.806;  -47.900;  -42.267;    0.000
1099.352;  -46.017;  -44.667;    0.000
1099.898;  -53.350;  -47.383;    0.000
1100.444;  -47.467;  -42.267;    0.000

