
Integration time [ms]: 100.000
Averaging Nr. [scans]: 20
Smoothing Nr. [pixels]: 0
Data measured with spectrometer [name]: 1701237U1
Wave   ;Sample   ;Dark     ;Reference;Scope Corrected for Dark
[nm]   ;[counts] ;[counts] ;[counts] ;[counts] 

 173.88;  -10.272;   -5.894;  -53.992;-4.37712
 174.48;   -3.544;   -3.546;   42.005; 0.00214
 175.09;    6.597;   -3.599;  -28.998;10.19522
 175.69;    6.710;    5.554;  -26.995; 1.15639
 176.30;    4.520;    1.806;   46.008; 2.71437
 176.90;  -12.329;   -7.298;  -38.997;-5.03138
 177.51;   -7.448;  -16.099;  -62.998; 8.65053
 178.11;    0.587;    2.304;   -2.994;-1.71754
 178.72;    0.659;   -8.048;  -27.997; 8.70692
 179.32;  -10.989;    0.155;    7.007;-11.14414
 179.93;    3.219;  -11.195;  -41.994;14.41490
 180.54;  -19.901;   14.551;   14.002;-34.45266
 181.14;   -8.525;   -5.944;  -41.992;-2.58031
 181.75;  -10.914;    0.102;   -7.998;-11.01595
 182.35;   -5.247;  -18.299;  -18.998;13.05213
 182.96;   -3.399;   14.902;  -32.997;-18.30106
 183.56;   -1.040;   -8.944;   -4.992; 7.90374
 184.17;   18.368;    8.803;  -28.995; 9.56490
 184.77;   -5.649;   -9.999;  -21.998; 4.34947
 185.38;   -9.247;   -4.646;   16.005;-4.60106
 185.98;    6.595;    4.454;  -18.995; 2.14150
 186.59;    0.911;    4.552;  -20.997;-3.64148
 187.19;   -8.973;   -4.347;  -32.996;-4.62659
 187.80;    0.690;    5.505;  -32.993;-4.81541
 188.40;   -3.117;   -7.642;  -43.989; 4.52448
 189.01;   -7.854;    8.354;   -7.995;-16.20797
 189.61;   -6.900;   -6.047;  -28.996;-0.85212
 190.21;   -6.112;  -10.495;   13.007; 4.38299
 190.82;  -11.688;    1.855;   19.007;-13.54254
 191.42;  -14.640;   -0.894;   44.008;-13.74573
 192.03;   -6.003;  -12.144;  -25.991; 6.14097
 192.63;  -21.684;    4.757;   -2.990;-26.44147
 193.24;   -7.371;    5.502;   32.002;-12.87234
 193.84;   -4.641;   -8.391;  -38.988; 3.75002
 194.45;   -5.838;   -8.293;  -45.990; 2.45480
 195.05;   -1.839;   -4.995;   13.007; 3.15639
 195.66;    0.634;   -5.143;  -35.991; 5.77767
 196.26;  -13.652;   -9.441;  -25.988;-4.21115
 196.87;   -3.010;   -4.342;  -51.989; 1.33193
 197.47;   -8.852;   -3.894;   13.009;-4.95850
 198.07;   -8.492;   -8.691;  -25.988; 0.19895
 198.68;   -8.863;   -6.591;  116.013;-2.27179
 199.28;  -11.112;   -2.545;   -2.992;-8.56754
 199.89;  -10.051;    0.261;  -25.984;-10.31221
 200.49;    2.755;   -7.091;   16.012; 9.84629
 201.10;    4.681;   -1.443;  -18.990; 6.12395
 201.70;    7.179;    2.109;  -35.987; 5.06970
 202.31;  -15.512;   -4.196;   36.006;-11.31648
 202.91;    7.384;    7.554;   55.006;-0.17020
 203.51;  -17.675;    3.957;   -5.990;-21.63190
 204.12;    4.612;   -4.299;   28.001; 8.91064
 204.72;   13.401;    4.452;    0.003; 8.94894
 205.33;   -7.163;   -0.746;  -19.994;-6.41701
 205.93;  -12.601;  -11.895;   -6.993;-0.70637
 206.53;   -0.775;   -7.594;  -32.992; 6.81969
 207.14;  -10.766;  -11.245;  -39.992; 0.47820
 207.74;  -19.005;    3.255;  -15.993;-22.26063
 208.35;  -11.604;  -10.894;  -33.991;-0.71063
 208.95;   -5.363;  -14.645;   -1.992; 9.28139
 209.55;   25.033;   15.955;  -12.992; 9.07767
 210.16;   -5.254;   -6.044;  -17.991; 0.78991
 210.76;   -0.140;    4.256;  -33.992;-4.39573
 211.37;  -11.529;  -11.244;   -8.992;-0.28510
 211.97;  -10.849;    3.354;  -76.995;-14.20265
 212.57;    5.115;   -6.142;  -72.988;11.25640
 213.18;    9.481;  -10.043;  -20.990;19.52395
 213.78;  -12.652;  -11.092;  -56.989;-1.56009
 214.38;   -1.261;    0.605;   -0.993;-1.86595
 214.99;    5.031;    1.157;  -90.990; 3.87395
 215.59;  -14.666;    6.608;   11.011;-21.27445
 216.20;  -20.698;   -5.491;  -46.988;-15.20637
 216.80;  -13.278;  -10.942;   -6.988;-2.33669
 217.40;    9.496;   -4.694;  -12.991;14.18937
 218.01;  -10.119;   -5.991;   -7.987;-4.12870
 218.61;   -0.547;  -17.792;  -26.989;17.24523
 219.21;   -3.765;   -7.295;   18.008; 3.52980
 219.82;   12.474;    1.956;    8.008;10.51810
 220.42;  -10.386;    9.006;  -28.992;-19.39201
 221.02;   -4.485;   -9.939;  -45.985; 5.45375
 221.63;  -10.074;   -9.788;   14.017;-0.28561
 222.23;   -7.767;  -13.892;  -26.989; 6.12502
 222.83;  -10.088;   -1.394;   28.008;-8.69360
 223.44;    2.037;   -6.746;  -24.994; 8.78299
 224.04;    0.171;    2.212;  -16.983;-2.04093
 224.64;   -6.556;   -4.091;    3.013;-2.46541
 225.25;   -3.032;   -0.294;  -25.992;-2.73829
 225.85;    3.316;   -8.095;  -57.993;11.41118
 226.45;   -3.068;    5.608;  -44.989;-8.67605
 227.06;   13.134;   -0.243;  -20.991;13.37714
 227.66;   18.678;   13.356;    3.008; 5.32235
 228.26;    5.709;   -3.693;  -18.990; 9.40161
 228.87;   -1.996;   -5.693;   31.010; 3.69629
 229.47;    6.098;    3.006;   13.009; 3.09203
 230.07;  -12.163;   -0.892;  -28.989;-11.27126
 230.68;   12.306;   10.504;   -0.995; 1.80267
 231.28;    8.965;   -1.092;  -37.988;10.05640
 231.88;   20.748;   23.758;   31.011;-3.01009
 232.48;   -6.568;   -2.796;  -21.994;-3.77233
 233.09;    3.206;   -4.545;   -4.993; 7.75161
 233.69;   -3.244;    4.006;   21.009;-7.24999
 234.29;    0.712;  -13.244;  -20.992;13.95639
 234.90;  -10.328;   -3.142;   -6.988;-7.18668
 235.50;   -1.538;   -7.988;  -22.983; 6.44949
 236.10;    2.270;   -1.644;  -34.992; 3.91437
 236.70;    3.238;   -8.842;   14.011;12.07980
 237.31;  -13.643;   -2.891;  -22.988;-10.75211
 237.91;  -16.931;   -8.692;  -59.988;-8.23934
 238.51;  -16.996;   -2.345;  -45.993;-14.65105
 239.11;   -2.918;   -0.200;   22.001;-2.71862
 239.72;  -12.725;    1.809;   11.013;-14.53402
 240.32;   -5.167;  -12.547;   -5.996; 7.37979
 240.92;   15.286;    1.858;  -13.989;13.42821
 241.53;   -7.073;  -13.891;  -14.987; 6.81757
 242.13;   10.623;    7.357;   23.010; 3.26597
 242.73;  -15.826;    0.356;   -2.992;-16.18190
 243.33;  -16.125;    4.202;   13.003;-20.32712
 243.93;    0.867;   -2.092;   11.012; 2.95906
 244.54;   -8.702;   -0.994;  -35.991;-7.70797
 245.14;   -3.525;  -19.143;  -60.990;15.61810
 245.74;    5.029;    4.308;  -17.989; 0.72076
 246.34;   -9.847;  -14.143;  -53.990; 4.29576
 246.95;   -1.197;  -10.541;    5.012; 9.34417
 247.55;   -0.399;  -10.742;  -25.989;10.34310
 248.15;   -9.819;   -0.389;   13.015;-9.42977
 248.75;    4.985;    2.105;   15.008; 2.87980
 249.36;  -23.066;   -2.390;   49.015;-20.67604
 249.96;  -20.591;  -11.895;  -35.993;-8.69573
 250.56;   -7.549;  -10.692;  -36.989; 3.14310
 251.16;    2.020;    0.256;  -25.992; 1.76384
 251.76;   -1.736;  -11.593;  -36.990; 9.85640
 252.37;   15.348;   -0.795;  -19.993;16.14256
 252.97;   -6.825;   -2.093;  -31.990;-4.73190
 253.57;   -4.652;   -4.794;    3.009; 0.14203
 254.17;    4.162;    9.359;  -12.988;-5.19679
 254.77;    3.992;   -7.495;   -2.993;11.48724
 255.38;    5.410;   -3.991;   86.012; 9.40108
 255.98;    8.659;   -4.098;   12.003;12.75639
 256.58;   -9.356;  -10.995;   -8.993; 1.63831
 257.18;    2.878;  -19.843;  -32.990;22.72129
 257.78;    2.190;   -2.343;  -21.991; 4.53352
 258.38;    3.896;  -27.044;  -46.991;30.93938
 258.99;   -9.222;   -9.796;   30.006; 0.57341
 259.59;   -4.881;  -17.144;  -82.992;12.26278
 260.19;   -8.311;  -19.592;  -38.989;11.28140
 260.79;   -7.502;   -8.942;  -36.989; 1.43991
 261.39;   19.711;    7.759;   -7.988;11.95214
 261.99;   -6.256;  -12.541;  -42.987; 6.28512
 262.60;   -4.286;   -6.842;  -39.988; 2.55534
 263.20;    4.391;   -1.796;  -21.994; 6.18671
 263.80;  -15.309;  -14.388;   -4.984;-0.92072
 264.40;   -6.543;  -18.843;  -31.990;12.30002
 265.00;   -3.405;   -6.494;  -19.991; 3.08831
 265.60;   -0.879;   -9.494;  -15.992; 8.61491
 266.20;    6.206;   -7.845;    5.007;14.05107
 266.81;  -14.537;   -9.894;   -8.992;-4.64254
 267.41;   -0.175;   -4.642;  -35.989; 4.46704
 268.01;   14.715;   -7.995;   14.007;22.71012
 268.61;    4.414;   -8.292;   -5.988;12.70587
 269.21;  -11.349;  -27.141;    4.012;15.79204
 269.81;   -3.505;   -7.496;  -18.995; 3.99150
 270.41;  -11.501;   -2.344;   -5.991;-9.15690
 271.01;    1.293;    1.358;  -42.989;-0.06435
 271.62;   -4.923;   -7.946;   -6.994; 3.02288
 272.22;  -13.099;   -3.845;   10.007;-9.25425
 272.82;   16.059;   -5.693;  -19.990;21.75214
 273.42;    5.868;    0.557;   23.010; 5.31118
 274.02;   -6.833;  -10.744;  -17.992; 3.91065
 274.62;   -6.185;  -18.690;   -9.986;12.50534
 275.22;  -12.742;  -13.445;  -12.993; 0.70320
 275.82;   -6.380;   -8.392;   28.012; 2.01119
 276.42;   -8.173;   -9.942;   21.011; 1.76917
 277.02;   -6.238;   -8.945;    5.007; 2.70692
 277.63;    2.844;   -8.392;   -0.989;11.23672
 278.23;  -10.203;   -9.192;  -18.989;-1.01115
 278.83;    7.310;   -1.691;  -27.988; 9.00108
 279.43;   -2.979;    2.908;   54.012;-5.88722
 280.03;   11.099;   -4.697;  -27.996;15.79628
 280.63;   -7.681;  -13.943;  -12.990; 6.26172
 281.23;    0.279;   -6.943;  -15.990; 7.22235
 281.83;  -15.528;   -5.790;  -49.987;-9.73775
 282.43;  -12.783;  -14.093;   11.010; 1.30959
 283.03;  -10.092;   -4.394;  -23.991;-5.69839
 283.63;    0.849;  -13.842;   11.011;14.69097
 284.23;  -12.344;  -12.191;   54.012;-0.15317
 284.83;   -3.901;   -6.441;  -56.988; 2.54044
 285.43;    2.405;    0.306;  -24.991; 2.09842
 286.03;   -4.045;   -7.246;   30.005; 3.20107
 286.63;   -3.403;  -12.692;    9.011; 9.28938
 287.23;  -16.700;  -15.994;  -16.991;-0.70584
 287.84;  -16.354;   -3.795;    9.007;-12.55956
 288.44;   -4.176;  -18.594;  -40.992;14.41810
 289.04;   -6.720;  -16.646;   41.006; 9.92607
 289.64;  -14.224;  -16.444;  -19.992; 2.22076
 290.24;   -8.808;   -6.387;    5.018;-2.42072
 290.84;  -16.115;  -16.198;  -19.998; 0.08351
 291.44;   -9.909;   -1.746;   31.006;-8.16329
 292.04;   -5.355;   -7.247;   14.004; 1.89256
 292.64;    3.893;   -6.695;  -45.993;10.58778
 293.24;   -5.903;   -2.696;   -5.995;-3.20691
 293.84;    2.136;  -11.242;   12.011;13.37768
 294.44;    3.550;   -3.242;    9.011; 6.79204
 295.04;  -13.559;  -15.895;  -10.993; 2.33618
 295.64;   -0.073;  -19.347;  -44.996;19.27394
 296.24;  -16.228;   -8.947;  -64.995;-7.28138
 296.84;   -4.720;   -6.046;  -61.994; 1.32607
 297.44;   -1.956;  -17.894;  -41.991;15.93725
 298.04;   -9.312;   -8.048;   36.002;-1.26383
 298.64;  -17.537;  -14.347;  -12.995;-3.19042
 299.24;    5.860;  -20.043;   -4.990;25.90267
 299.84;  -11.888;    0.953;  -42.995;-12.84148
 300.44;   -3.268;  -16.494;  -40.992;13.22607
 301.04;   -9.335;   -7.448;  -35.997;-1.88723
 301.64;  -11.008;   -5.592;  -42.989;-5.41541
 302.24;   -3.761;   -6.043;   25.009; 2.28193
 302.83;   -4.272;  -15.548;  -29.997;11.27660
 303.43;  -11.142;  -14.493;  -18.990; 3.35055
 304.03;  -11.915;  -18.441;  -29.987; 6.52608
 304.63;  -16.039;   -8.495;   -3.993;-7.54361
 305.23;   -2.317;  -14.145;  -43.992;11.82767
 305.83;   -7.791;   -7.494;  -26.991;-0.29680
 306.43;   -6.395;   -4.944;   34.009;-1.45158
 307.03;    3.102;  -11.892;  -22.989;14.99470
 307.63;    8.862;   -4.244;    4.008;13.10586
 308.23;   -6.185;   -8.593;   44.010; 2.40799
 308.83;   -2.859;  -16.392;  -47.989;13.53300
 309.43;  -15.738;   -4.190;   29.014;-11.54785
 310.03;   -9.456;  -15.840;   -7.986; 6.38406
 310.63;   -2.495;   -5.741;   -5.988; 3.24629
 311.23;   -8.615;  -29.990;  -31.985;21.37449
 311.83;  -11.300;   -8.194;  -21.991;-3.10584
 312.43;   -2.371;  -23.446;  -37.994;21.07448
 313.02;  -11.023;   -3.992;   18.011;-7.03083
 313.62;   -4.822;  -17.744;   -0.992;12.92235
 314.22;   -6.362;   -4.193;  -55.991;-2.16860
 314.82;   12.569;    2.058;  -68.988;10.51066
 315.42;   -9.750;   -4.740;  -58.986;-5.01009
 316.02;   -7.641;  -14.391;    5.012; 6.75055
 316.62;   -4.307;   -4.088;  -40.984;-0.21806
 317.22;   13.587;  -15.290;  -27.985;28.87662
 317.82;    6.576;   -5.641;  -30.987;12.21704
 318.42;   47.076;   15.156;  -45.992;31.92022
 319.01;    7.416;    4.060;    0.014; 3.35587
 319.61;   16.935;  -18.340;    5.015;35.27449
 320.21;   16.422;   -7.040;  -21.987;23.46279
 320.81;   22.368;  -19.537;  -13.981;41.90428
 321.41;   24.109;   -2.844;  -74.991;26.95320
 322.01;   -9.336;  -12.992;   -9.988; 3.65587
 322.61;   -6.333;   -8.138;    2.017; 1.80481
 323.21;  -10.503;  -23.340;   23.014;12.83726
 323.80;  -26.085;  -16.740;  -26.986;-9.34519
 324.40;   -2.689;  -16.885;   42.021;14.19631
 325.00;   -6.601;  -11.037;   -6.982; 4.43673
 325.60;    2.910;  -13.988;  -32.983;16.89790
 326.20;  -14.343;   -7.389;  -26.984;-6.95423
 326.80;    3.192;  -10.237;   22.018;13.42875
 327.40;   -3.215;  -17.034;   -6.978;13.81971
 327.99;   -4.706;   -6.231;  -45.973; 1.52504
 328.59;   -9.839;   -3.680;  -14.972;-6.15900
 329.19;   57.479;   32.322;    2.031;25.15696
 329.79;  -10.106;  -10.428;   15.030; 0.32238
 330.39;    9.894;    6.973;    6.032; 2.92132
 330.99;  -16.609;   -9.928;  -12.970;-6.68027
 331.58;   -8.183;  -15.725;  -49.965; 7.54207
 332.18;   -9.598;   -5.022;   11.039;-4.57601
 332.78;   -3.380;   -6.771;  -16.960; 3.39102
 333.38;    1.240;    1.332;  -36.955;-0.09142
 333.98;  -12.331;  -14.570;   21.042; 2.23942
 334.57;   -4.640;   -8.469;  -12.956; 3.82879
 335.17;    0.680;  -15.320;  -60.959;16.00006
 335.77;   -6.764;   -2.472;  -44.961;-4.29196
 336.37;   12.068;    0.131;  -18.956;11.93677
 336.97;    2.984;  -12.424;    8.036;15.40856
 337.56;  -14.074;  -23.223;  -52.962; 9.14846
 338.16;   10.174;   -0.974;   -2.964;11.14846
 338.76;   10.431;   -1.929;    9.029;12.36068
 339.36;  -22.919;  -14.177;   20.032;-8.74197
 339.96;   -2.123;   -5.078;    8.031; 2.95536
 340.55;  -10.061;  -18.828;   17.030; 8.76760
 341.15;   -3.576;  -14.128;   -3.969;10.55217
 341.75;  -10.550;   -4.625;   24.035;-5.92495
 342.35;  -17.007;  -17.525;  -39.964; 0.51761
 342.94;   -1.460;   -1.868;   18.045; 0.40804
 343.54;    6.528;   -9.023;   12.038;15.55112
 344.14;  -14.692;  -10.922;   -1.961;-3.76909
 344.74;   -7.678;  -24.070;  -33.958;16.39261
 345.33;   -1.133;   -5.674;  -25.963; 4.54101
 345.93;   -1.879;  -14.524;  -28.964;12.64527
 346.53;   -6.717;  -14.027;   26.032; 7.31015
 347.13;  -15.365;  -24.826;  -66.966; 9.46069
 347.72;   -7.060;  -20.772;  -60.961;13.71229
 348.32;   13.359;   -6.726;  -80.967;20.08569
 348.92;  -16.302;   -1.375;  -50.965;-14.92708
 349.52;   18.617;  -26.374;  -18.963;44.99048
 350.11;   12.201;    0.126;  -51.963;12.07452
 350.71;   -8.056;  -11.126;  -16.966; 3.06973
 351.31;   -3.611;   -8.577;  -76.968; 4.96600
 351.91;   -3.022;  -20.577;  -17.967;17.55483
 352.50;    7.064;   -6.026;  -19.967;13.09047
 353.10;    1.338;  -14.976;  -41.966;16.31388
 353.70;   -7.467;   -4.879;  -12.971;-2.58772
 354.29;   -9.524;  -15.325;   -0.966; 5.80111
 354.89;   -3.898;  -15.922;   -4.961;12.02399
 355.49;    3.406;  -17.379;  -45.970;20.78462
 356.09;   -2.861;  -11.623;    1.038; 8.76229
 356.68;   -6.030;  -17.877;  -44.967;11.84686
 357.28;  -14.127;   -2.572;  -78.960;-11.55579
 357.88;  -12.252;   -8.272;  -16.961;-3.97973
 358.47;   -4.589;  -19.025;  -10.965;14.43569
 359.07;   -0.829;   -6.177;  -37.967; 5.34792
 359.67;  -17.249;   -7.526;  -12.966;-9.72282
 360.26;    4.187;  -23.526;  -35.966;27.71281
 360.86;   11.558;  -14.324;  -16.963;25.88197
 361.46;    7.410;  -12.979;    2.030;20.38887
 362.05;    9.063;   -3.924;   -4.963;12.98676
 362.65;    2.097;  -22.278;  -22.970;24.37558
 363.25;   -4.204;  -12.728;  -27.970; 8.52398
 363.84;   -2.793;  -14.729;  -26.970;11.93568
 364.44;    0.140;    5.323;   13.032;-5.18293
 365.04;  -12.222;   -8.177;  -98.967;-4.04570
 365.63;  -12.196;  -21.977;  -19.968; 9.78143
 366.23;    2.512;  -18.279;  -17.970;20.79100
 366.83;   -9.144;  -12.577;  -21.968; 3.43303
 367.42;    0.111;   -9.775;  -23.965; 9.88569
 368.02;   -9.000;   -1.027;   -9.968;-7.97283
 368.62;    1.241;   -8.475;  -29.964; 9.71548
 369.21;    3.858;   -9.375;  -30.965;13.23250
 369.81;   35.480;   14.374;   23.034;21.10537
 370.41;   -5.779;  -16.082;   32.026;10.30217
 371.00;    9.492;  -18.922;  -34.961;28.41389
 371.60;    9.834;   -2.123;    1.038;11.95697
 372.19;   -3.914;  -10.076;  -11.966; 6.16175
 372.79;   -4.673;  -14.129;  -68.971; 9.45589
 373.39;    6.915;   -6.478;  -29.969;13.39260
 373.98;   -3.309;   -2.025;  -21.964;-1.28399
 374.58;   12.174;  -15.827;   18.033;28.00058
 375.17;    2.481;    2.130;   -7.959; 0.35166
 375.77;    2.486;    0.776;  -34.964; 1.71016
 376.37;    4.870;  -14.624;   61.036;19.49367
 376.96;    9.888;  -14.174;  -18.964;24.06229
 377.56;   17.092;    1.123;  -28.968;15.96919
 378.15;   -5.232;  -22.426;  -33.967;17.19473
 378.75;    9.431;   -6.524;   -5.964;15.95537
 379.35;   -5.546;  -16.075;  -23.965;10.52877
 379.94;   15.799;  -11.173;  -15.963;26.97239
 380.54;   12.759;  -21.472;  -28.961;34.23144
 381.13;   14.829;  -17.024;   27.036;31.85324
 381.73;   38.103;  -30.579;   -4.970;68.68196
 382.32;   19.073;   -6.780;    6.027;25.85323
 382.92;   33.500;  -30.775;   -5.965;64.27452
 383.52;   21.068;  -23.376;  -22.967;44.44420
 384.11;   32.496;  -12.325;  -40.964;44.82027
 384.71;   46.654;   -9.472;  -18.961;56.12612
 385.30;   57.990;  -19.073;  -28.963;77.06335
 385.90;   78.858;   -9.875;  -30.965;88.73250
 386.49;  163.172;  -28.823;  -23.962;191.99474
 387.09; 1017.933;   -5.022;  -50.960;1022.95434
 387.68; 2889.044;  -14.776;  -41.966;2903.81980
 388.28; 3449.485;  -16.076;  -30.966;3465.56024
 388.87; 3680.218;    0.121;  -23.971;3680.09676
 389.47; 3651.718;  -17.173;  -11.962;3668.89095
 390.07; 3538.400;   -4.475;   -9.965;3542.87515
 390.66; 3267.879;  -12.627;  -26.967;3280.50590
 391.26; 2621.699;  -19.173;  -31.963;2640.87293
 391.85; 1074.038;   -7.024;   -7.964;1081.06228
 392.45;  172.965;  -12.474;    8.037;185.43888
 393.04;   64.068;  -25.628;  -42.969;89.69579
 393.64;   28.823;  -23.127;  -49.967;51.95005
 394.23;   35.809;  -10.825;  -59.965;46.63409
 394.83;   45.524;  -22.677;  -11.967;68.20058
 395.42;   54.546;   -5.171;  -21.959;59.71655
 396.02;   66.801;  -16.827;   -9.968;83.62824
 396.61;   56.442;  -18.372;   33.039;74.81442
 397.21;   62.502;   -4.925;  -21.965;67.42718
 397.80; 1464.178; 1210.025;   48.034;254.15381
 398.40;   76.205;   15.225;  -30.965;60.98037
 398.99;   44.561;    3.375;  -70.965;41.18569
 399.59;   21.674;  -24.123;  -13.962;45.79686
 400.18;   16.224;  -25.625;  -78.965;41.84952
 400.78;   52.740;  -19.576;  -59.966;72.31547
 401.37;   93.461;   -5.629;  -69.970;99.08994
 401.96;  110.920;  -14.024;  -21.964;124.94420
 402.56;  104.639;  -17.076;  -70.966;121.71494
 403.15;  132.728;  -12.075;   -7.966;144.80378
 403.75;  107.164;   -6.728;   -1.969;113.89207
 404.34;   83.082;  -29.174;   27.036;112.25590
 404.94;   76.854;  -17.225;  -26.965;94.07877
 405.53;   31.707;  -20.624;  -41.963;52.33037
 406.13;   12.036;  -10.523;   46.038;22.55910
 406.72;    2.888;  -30.878;  -54.970;33.76600
 407.32;    9.809;  -18.525;  -48.965;28.33356
 407.91;   19.490;   -5.526;  -89.966;25.01601
 408.50;   -7.353;  -15.330;  -16.972; 7.97717
 409.10;   -8.009;  -11.176;    1.034; 3.16707
 409.69;    7.324;  -13.278;  -17.969;20.60217
 410.29;    8.152;  -28.527;   63.032;36.67930
 410.88;   10.899;   -3.426;   13.034;14.32452
 411.47;   26.510;  -26.778;  -32.969;53.28781
 412.07;   23.558;  -24.777;  -51.968;48.33515
 412.66;   22.750;  -13.927;  -34.968;36.67771
 413.26;   19.749;  -21.829;  -48.970;41.57770
 413.85;   21.066;  -29.429;   -1.971;50.49526
 414.45;   31.906;    3.124;   -4.967;28.78250
 415.04;    5.757;  -28.979;   -7.970;34.73568
 415.63;    6.155;  -11.876;  -29.967;18.03143
 416.23;   -3.597;   -6.926;  -34.967; 3.32930
 416.82;    9.021;  -10.275;  -28.965;19.29580
 417.41;    3.561;  -11.880;  -70.972;15.44153
 418.01;   -4.973;   -0.327;  -45.967;-4.64623
 418.60;   -5.538;  -24.075;  -56.965;18.53675
 419.20;   -7.587;  -17.128;   34.031; 9.54047
 419.79;   -9.385;  -23.129;  -12.970;13.74419
 420.38;   -4.821;  -15.878;  -25.969;11.05749
 420.98;  -15.632;  -18.779;  -24.971; 3.14685
 421.57;   -9.505;   -4.227;    1.032;-5.27814
 422.16;   -6.279;  -15.130;   21.028; 8.85110
 422.76;  -19.420;  -13.231;  -40.973;-6.18932
 423.35;   -6.215;  -28.778;  -72.969;22.56334
 423.94;    2.410;   -1.830;   -4.972; 4.24047
 424.54;   -2.499;  -12.981;    6.026;10.48195
 425.13;    4.566;   -2.626;  -55.967; 7.19207
 425.73;    5.731;   -9.979;  -36.971;15.71015
 426.32;  -14.472;   -6.128;    3.031;-8.34410
 426.91;    6.460;  -14.231;  -18.974;20.69153
 427.51;   -1.600;   -9.532;   -6.975; 7.93248
 428.10;    5.074;   -9.130;  -51.973;14.20430
 428.69;  -11.283;  -11.730;  -60.972; 0.44685
 429.28;  -15.279;  -22.227;  -90.967; 6.94739
 429.88;  -14.351;  -15.279;  -35.970; 0.92717
 430.47;   -8.006;  -12.682;  -23.975; 4.67663
 431.06;    7.822;  -18.180;  -27.972;26.00217
 431.66;   -6.740;  -21.781;  -40.974;15.04153
 432.25;  -16.327;  -15.130;    0.027;-1.19677
 432.84;   -8.627;  -17.583;  -33.976; 8.95588
 433.44;  -15.065;  -17.378;  -33.969; 2.31334
 434.03;   -2.333;  -30.133;  -37.976;27.79950
 434.62;   -8.421;  -13.881;  -22.973; 5.45961
 435.22;   -0.364;  -15.736;  -43.980;15.37184
 435.81;   -9.987;  -11.831;    3.026; 1.84472
 436.40;   -0.147;  -19.134;  -66.977;18.98674
 436.99;    9.431;  -14.281;    9.027;23.71174
 437.59;   44.815;  -26.631;   18.026;71.44631
 438.18;   48.286;   -9.433;  -23.977;57.71918
 438.77;   35.754;  -21.934;   -8.977;57.68727
 439.36;   39.488;  -18.331;  -41.973;57.81866
 439.96;   65.174;  -21.685;  -77.980;86.85961
 440.55;   52.543;  -14.632;  -18.975;67.17557
 441.14;   44.048;  -14.684;  -79.977;58.73195
 441.73;   27.031;  -15.178;  -46.969;42.20856
 442.33;   19.601;  -22.780;  -88.972;42.38036
 442.92;   33.842;    1.365;    3.021;32.47716
 443.51;   19.941;  -11.432;  -47.975;31.37291
 444.10;   29.196;   -8.431;    6.027;37.62717
 444.70;   52.550;  -25.085;    4.021;77.63514
 445.29;  325.653;  -16.630;  -52.972;342.28301
 445.88;  953.167;  -27.482;  -34.974;980.64898
 446.47; 1191.902;   -1.085;   -9.979;1192.98675
 447.07; 1188.421;  -19.184;    1.022;1207.60539
 447.66; 1175.246;  -17.181;   28.027;1192.42718
 448.25; 1197.985;  -23.433;  -18.977;1221.41869
 448.84; 1064.216;  -14.883;   22.024;1079.09842
 449.43;  967.888;   -7.537;   -0.982;975.42557
 450.03;  455.254;   -0.129;   22.030;455.38248
 450.62;   59.079;  -15.881;   10.027;74.95961
 451.21;   13.741;  -15.280;  -37.971;29.02079
 451.80;   18.876;   -8.033;  -30.976;26.90908
 452.39;   -2.927;  -14.084;   -8.978;11.15748
 452.99;   -1.324;  -30.335;   25.020;29.01120
 453.58;   -9.343;  -10.185;  -22.979; 0.84152
 454.17;   -3.160;  -27.338;  -42.984;24.17875
 454.76;   -6.773;  -10.987;   24.018; 4.21386
 455.35;   15.818;   -7.135;    5.021;22.95322
 455.95;  -14.022;  -25.933;   44.024;11.91121
 456.54;    1.181;  -25.137;  -17.982;26.31811
 457.13;    0.295;   -5.833;   26.023; 6.12876
 457.72;   -4.825;  -23.038;   -3.983;18.21279
 458.31;   -2.701;  -18.887;  -39.982;16.18673
 458.90;    1.971;  -20.434;  -47.978;22.40535
 459.50;   -2.707;  -21.283;    9.023;18.57610
 460.09;   -3.051;  -23.032;   -6.975;19.98142
 460.68;  -16.404;   -6.185;   22.021;-10.21965
 461.27;   -6.528;  -25.334;  -51.978;18.80588
 461.86;    1.782;  -15.186;  -47.980;16.96758
 462.45;   20.893;  -13.141;  -35.987;34.03406
 463.04;    8.607;  -21.984;  -47.977;30.59046
 463.64;   34.170;    5.911;   -4.985;28.25960
 464.23;   44.731;  -14.434;    6.022;59.16546
 464.82;   44.445;  -16.386;  -23.980;60.83141
 465.41;   48.198;  -25.291;  -17.988;73.48938
 466.00;   32.799;  -14.736;   20.019;47.53460
 466.59;   36.808;  -12.740;   59.014;49.54842
 467.18;   40.007;  -16.239;  -54.984;56.24630
 467.77;   25.282;  -17.937;    6.018;43.21864
 468.37;   28.874;  -15.934;  -56.978;44.80801
 468.96;   22.322;   -7.884;   -9.978;30.20588
 469.55;  128.337;  -13.136;  -10.980;141.47290
 470.14;  251.830;  -13.684;    0.022;265.51386
 470.73;  291.868;  -24.683;  -12.976;316.55110
 471.32;  312.879;  -11.837;  -10.982;324.71547
 471.91;  296.114;  -33.288;    9.017;329.40162
 472.50;  282.798;  -14.132;  -45.975;296.93037
 473.09;  278.610;  -19.740;  -37.986;298.35054
 473.68;  226.327;    3.967;   17.024;222.36014
 474.27;   78.779;  -22.239;  -29.985;101.01864
 474.86;    6.255;  -15.536;   -5.981;21.79152
 475.46;    8.427;  -10.938;  -42.983;19.36492
 476.05;    9.172;   -0.638;    7.017; 9.81013
 476.64;   -7.854;  -21.589;  -99.984;13.73407
 477.23;   -2.018;  -17.987;   13.018;15.96864
 477.82;  -20.875;  -20.388;   -4.983;-0.48721
 478.41;   -3.521;  -10.188;  -21.983; 6.66705
 479.00;   -7.466;  -18.487;  -18.982;11.02077
 479.59;  -24.799;  -15.035;  -39.979;-9.76380
 480.18;   -4.073;  -17.939;    0.015;13.86598
 480.77;   -5.980;   -6.889;  -38.985; 0.90960
 481.36;  -10.276;  -16.889;  -44.985; 6.61332
 481.95;   -5.229;  -21.937;   32.019;16.70747
 482.54;   -0.689;  -30.484;    4.023;29.79525
 483.13;  -17.491;  -15.536;  -31.981;-1.95476
 483.72;  -11.545;  -19.290;    6.014; 7.74470
 484.31;  -12.966;  -11.588;   -4.984;-1.37764
 484.90;   -7.149;  -11.989;  -33.984; 4.83939
 485.49;  -13.878;  -16.842;  -25.988; 2.96332
 486.08;    2.247;  -24.090;   16.014;26.33672
 486.67;   -3.564;    2.759;  -60.987;-6.32339
 487.26;    1.576;  -25.591;  -64.987;27.16651
 487.85;  -10.757;  -22.088;   -8.984;11.33141
 488.44;   -6.690;  -28.586;  -24.981;21.89684
 489.03;    8.330;   -8.189;  -37.985;16.51917
 489.62;    9.382;  -23.341;  -14.987;32.72289
 490.21;   87.567;  -21.339;   39.015;108.90587
 490.80;  387.921;  -16.540;    7.013;404.46173
 491.39;  527.115;  -17.389;  -30.985;544.50426
 491.98;  564.205;  -18.690;  -40.986;582.89523
 492.57;  540.596;  -12.242;  -15.989;552.83833
 493.16;  554.250;  -18.137;  -14.982;572.38781
 493.75;  508.910;  -12.288;  -24.983;521.19738
 494.34;  481.141;  -23.638;   16.016;504.77981
 494.93;  286.011;  -40.991;  -32.988;327.00214
 495.52;   47.350;  -27.087;   -1.982;74.43726
 496.11;   -9.182;  -25.638;   20.017;16.45534
 496.70;   -0.311;  -30.235;  -54.978;29.92397
 497.29;   -6.721;  -26.388;  -39.983;19.66758
 497.88;   25.871;  -18.539;  -70.985;44.41066
 498.47;   11.483;  -11.739;   23.015;23.22289
 499.06;   43.102;   -9.487;    0.018;52.58939
 499.64;  400.503;  -29.940;  -69.986;430.44256
 500.23; 1426.788;  -29.738;   -1.984;1456.52605
 500.82; 1852.905;  -20.089;  -51.984;1872.99367
 501.41; 1908.457;  -10.236;  -16.981;1918.69307
 502.00; 1875.808;  -22.988;  -21.983;1898.79519
 502.59; 1884.167;  -10.439;   -6.985;1894.60593
 503.18; 1824.897;  -22.639;  -56.984;1847.53566
 503.77; 1707.049;  -34.039;  -41.984;1741.08781
 504.36;  950.376;   -4.539;  -24.985;954.91546
 504.95;  216.610;  -30.439;  -60.984;247.04842
 505.54;   93.233;   -8.588;  -55.983;101.82130
 506.12;  101.401;  -20.639;  -36.984;122.03938
 506.71;   62.652;  -11.789;  -52.984;74.44045
 507.30;   57.684;  -23.486;  -40.980;81.16971
 507.89;   21.637;  -23.036;  -26.980;44.67290
 508.48;   -5.809;  -28.490;  -53.986;22.68087
 509.07;   -3.416;   -2.684;    3.022;-0.73188
 509.66;   -2.296;   -5.240;  -30.986; 2.94364
 510.25;   -6.055;  -22.186;  -22.980;16.13141
 510.84;   -2.945;  -21.687;   -5.982;18.74205
 511.42;   -1.954;  -19.189;  -54.984;17.23407
 512.01;   19.664;  -14.694;  -24.992;34.35852
 512.60;   -4.186;  -19.988;  -11.983;15.80215
 513.19;   -7.900;  -30.387;   30.018;22.48779
 513.78;  -11.172;  -10.887;   63.018;-0.28508
 514.37;    6.256;   -7.990;    6.014;14.24577
 514.95;    0.129;  -22.042;   11.011;22.17129
 515.54;    0.070;  -24.739;  -69.985;24.80960
 516.13;  -16.236;  -32.288;  -12.983;16.05215
 516.72;    4.744;   -8.440;  -56.986;13.18353
 517.31;    5.504;   -8.690;  -58.986;14.19364
 517.90;  -13.723;  -30.091;  -20.987;16.36757
 518.48;  -22.915;  -15.640;  -34.985;-7.27498
 519.07;   -5.210;  -18.487;   -4.982;13.27662
 519.66;   12.802;    4.359;   47.012; 8.44310
 520.25;  -14.779;  -18.190;  -27.987; 3.41172
 520.84;  -11.808;  -17.688;   -2.984; 5.88034
 521.43;   -0.812;  -16.991;   14.013;16.17927
 522.01;   13.581;   -2.991;   -4.987;16.57183
 522.60;   14.926;  -15.489;   31.015;30.41492
 523.19;  -17.802;  -22.890;  -27.986; 5.08779
 523.78;   -2.063;  -25.688;  -21.984;23.62556
 524.37;   -8.920;  -10.437;   -8.982; 1.51705
 524.95;   10.409;  -22.991;  -70.988;33.40002
 525.54;    2.484;  -16.388;  -10.984;18.87183
 526.13;    2.811;  -23.189;  -51.984;26.00002
 526.72;    0.785;   -6.393;   -4.991; 7.17874
 527.30;    6.840;  -29.791;  -14.987;36.63140
 527.89;  -20.923;  -24.438;  -25.983; 3.51545
 528.48;   -1.844;  -21.641;   -5.988;19.79736
 529.07;   -6.252;  -10.589;  -13.984; 4.33619
 529.65;   16.839;   -9.992;  -60.989;26.83087
 530.24;   -7.655;   -4.238;    8.016;-3.41700
 530.83;   -7.577;  -21.892;  -24.988;14.31491
 531.42;   -1.013;   -8.691;    5.013; 7.67768
 532.00;    3.737;  -15.590;   17.015;19.32609
 532.59;    3.327;  -23.843;   35.010;27.17023
 533.18;    2.071;  -21.843;  -29.990;23.91385
 533.77;    6.421;  -10.289;  -54.985;16.71013
 534.35;   -1.821;  -17.541;  -13.987;15.71970
 534.94;   -2.611;  -11.991;  -99.987; 9.38034
 535.53;    3.689;  -20.293;  -42.991;23.98193
 536.12;   -8.625;   -7.688;  -62.983;-0.93721
 536.70;   -1.142;  -27.394;  -21.991;26.25214
 537.29;  -14.369;  -25.042;  -68.989;10.67342
 537.88;   -7.215;  -21.392;  -29.989;14.17661
 538.46;  -19.841;  -17.790;    0.014;-2.05051
 539.05;   -2.810;  -19.842;  -47.989;17.03246
 539.64;   -8.551;  -17.894;  -74.991; 9.34257
 540.23;   -0.950;  -16.191;   -8.988;15.24097
 540.81;   10.319;   -1.443;   -6.990;11.76225
 541.40;   -5.754;  -20.839;  -49.984;15.08407
 541.99;   -8.450;  -15.391;   -7.988; 6.94098
 542.57;   -4.266;  -19.342;  -73.989;15.07555
 543.16;   -4.106;  -22.090;  -58.986;17.98353
 543.75;  -15.708;  -22.095;  -17.993; 6.38671
 544.33;   -6.922;  -20.992;  -26.989;14.07023
 544.92;    8.684;   -9.245;   -9.992;17.92873
 545.51;   -9.087;  -17.141;  -68.988; 8.05427
 546.09;  -12.148;  -24.140;    0.014;11.99204
 546.68;    0.216;   -4.390;  -60.986; 4.60640
 547.27;    3.847;  -16.494;   10.009;20.34044
 547.85;  -16.986;  -16.643;  -50.990;-0.34307
 548.44;   -3.591;  -26.094;  -40.991;22.50320
 549.03;  -12.428;   -3.944;  -23.992;-8.48350
 549.61;   -3.296;  -19.190;  -10.986;15.89364
 550.20;    4.424;  -15.043;  -14.990;19.46704
 550.78;    3.158;  -18.591;  -79.988;21.74949
 551.37;    2.507;  -24.396;  -66.995;26.90373
 551.96;  -10.718;  -36.494;  -35.992;25.77661
 552.54;    0.512;  -22.488;  -19.983;23.00003
 553.13;    2.924;  -25.491;    0.013;28.41438
 553.72;   -1.419;  -23.692;  -33.989;22.27342
 554.30;    9.499;  -13.746;   20.005;23.24522
 554.89;    5.940;  -18.496;   -7.994;24.43618
 555.47;   14.920;  -20.193;  -43.990;35.11278
 556.06;    5.344;  -13.741;    8.013;19.08459
 556.65;   10.354;  -16.793;    1.010;27.14629
 557.23;    7.140;  -13.342;  -23.989;20.48193
 557.82;   13.421;  -19.844;  -43.992;33.26491
 558.40;   18.268;   -9.443;  -29.990;27.71119
 558.99;   17.522;  -21.238;  -53.983;38.75960
 559.58;    5.423;  -24.140;  -25.987;29.56385
 560.16;   12.234;  -20.438;    2.016;32.67183
 560.75;    8.944;  -25.490;  -25.986;34.43406
 561.33;   33.015;  -12.493;   27.010;45.50799
 561.92;  -13.281;  -25.040;   -2.987;11.75906
 562.50;    9.791;  -26.043;   19.009;35.83406
 563.09;   16.837;   -6.842;  -10.989;23.67874
 563.68;    9.059;  -23.143;  -28.990;32.20161
 564.26;   15.809;  -18.991;  -20.988;34.80055
 564.85;   30.442;  -23.742;  -53.989;54.18459
 565.43;   19.550;  -13.791;  -52.988;33.34097
 566.02;   30.572;  -23.392;  -17.988;53.96331
 566.60;    9.854;   -5.894;  -34.991;15.74788
 567.19;   16.747;  -21.441;  -64.988;38.18832
 567.77;   23.726;  -17.696;  -64.994;41.42182
 568.36;   35.046;  -19.695;  -18.993;54.74097
 568.94;   25.382;  -24.093;  -24.991;49.47555
 569.53;   29.412;  -13.293;  -37.990;42.70427
 570.11;   32.289;  -22.246;  -28.994;54.53512
 570.70;   32.633;  -34.593;  -28.991;67.22661
 571.28;   43.260;  -14.239;  -67.984;57.49896
 571.87;   53.439;  -33.196;  -94.994;86.63458
 572.45;   76.420;  -13.194;  -34.992;89.61384
 573.04;   60.692;  -27.890;  -52.986;88.58141
 573.62;   67.990;  -26.843;  -32.991;94.83299
 574.21;   94.558;  -19.443;  -61.990;114.00108
 574.79;   90.639;  -16.688;  -67.984;107.32769
 575.38;   89.385;  -18.843;  -69.991;108.22821
 575.96;   79.982;  -30.746;  -18.994;110.72820
 576.55;   92.678;  -26.194;  -58.992;118.87288
 577.13;   98.918;  -26.445;   -0.994;125.36331
 577.72;  119.707;  -24.194;  -47.991;143.90108
 578.30;  129.818;  -18.842; -108.988;148.65959
 578.89;  122.647;  -31.396;   -1.995;154.04309
 579.47;  149.829;  -19.242;    4.011;169.07076
 580.06;  172.461;  -37.440;  -68.986;209.90108
 580.64;  173.943;  -20.494; -101.991;194.43619
 581.23;  194.640;  -28.793;  -64.991;223.43299
 581.81;  219.339;  -17.142;  -20.989;236.48087
 582.39;  199.001;  -25.594;  -49.991;224.59469
 582.98;  227.507;  -20.640;  -42.986;248.14736
 583.56;  270.972;  -30.889;  -32.985;301.86121
 584.15;  326.464;  -16.742;  -46.988;343.20535
 584.73;  503.283;  -23.639;  -42.985;526.92237
 585.32; 1725.317;  -17.992;  -26.988;1743.30848
 585.90;15555.538;  -11.340;  -91.985;15566.87768
 586.48;31506.758;  -15.343;    9.010;31522.10041
 587.07;34371.070;  -25.943;  -11.990;34397.01323
 587.65;34834.016;  -12.693;  -23.990;34846.70848
 588.24;34397.098;  -29.094;   38.009;34426.19129
 588.82;33416.129;  -26.893;  -59.990;33443.02203
 589.41;32113.520;  186.406;   14.008;31927.11369
 589.99;26347.895;  -11.791;   38.013;26359.68554
 590.57; 8973.065;  -41.345;  -21.993;9014.41077
 591.16; 1240.880;  -11.041;  -22.987;1251.92079
 591.74;  503.985;   -8.843;   18.009;512.82820
 592.32;  343.578;  -19.244;   15.008;362.82290
 592.91;  284.171;  -21.490;  -28.987;305.66120
 593.49;  223.185;  -34.595;   -8.992;257.77927
 594.08;  195.754;  -28.541;  -55.988;224.29576
 594.66;  174.975;  -15.694;   11.008;190.66917
 595.24;  180.493;  -23.395;   -8.993;203.88777
 595.83;  156.394;  -14.742;   37.011;171.13672
 596.41;  162.672;  -27.947;   -8.995;190.61916
 596.99;  158.748;  -17.045;   20.007;175.79256
 597.58;  153.914;  -25.894;   31.008;179.80853
 598.16;  153.632;  -15.389;  -10.985;169.02182
 598.74;  140.548;  -14.394;  -29.991;154.94203
 599.33;  115.727;  -15.892;  -20.989;131.61864
 599.91;   98.603;  -22.841;  -25.988;121.44470
 600.49;   94.167;   -5.140;  -52.986;99.30694
 601.08;   92.235;  -12.045;   12.008;104.27980
 601.66;   55.525;  -23.244;  -60.992;78.76916
 602.24;   55.911;  -34.895;  -34.993;90.80639
 602.83;   45.903;  -26.395; -104.993;72.29788
 603.41;   44.780;  -30.944;  -78.992;75.72448
 603.99;   39.460;  -20.836;  -15.981;60.29630
 604.58;   27.795;  -22.444;  -44.991;50.23831
 605.16;   31.037;  -19.392;  -21.989;50.42927
 605.74;   35.085;  -35.243;  -54.991;70.32821
 606.33;   40.712;  -29.544;  -13.992;70.25640
 606.91;   41.098;  -22.691;   20.012;63.78938
 607.49;   17.435;  -24.792;    7.011;42.22714
 608.07;   43.440;  -19.495;  -28.993;62.93459
 608.66;   29.562;  -24.594;  -53.992;54.15586
 609.24;   33.223;  -18.444;  -68.992;51.66756
 609.82;   36.861;  -23.043;  -51.990;59.90374
 610.41;   35.420;  -27.843;  -14.990;63.26278
 610.99;   18.803;  -26.944;  -34.991;45.74629
 611.57;   22.744;  -23.146;  -46.994;45.89043
 612.15;   27.120;  -21.493;  -44.990;48.61331
 612.74;   48.496;  -23.446;  -59.995;71.94256
 613.32;   22.381;  -20.743;  -53.990;43.12448
 613.90;   37.914;  -20.344;  -19.992;58.25852
 614.48;   13.994;  -13.192;  -17.989;27.18619
 615.07;   21.689;  -25.340;    5.015;47.02875
 615.65;   10.133;  -29.647;  -55.996;39.77979
 616.23;   18.933;  -31.993;  -70.991;50.92608
 616.81;   13.138;  -27.338;  -25.984;40.47609
 617.40;   27.128;  -35.536;  -48.980;62.66333
 617.98;   15.176;  -20.833;  -59.976;36.00908
 618.56;   12.975;  -31.089;  -85.985;44.06438
 619.14;   13.707;  -12.788;  -45.983;26.49471
 619.72;    5.763;  -39.088;  -78.983;44.85109
 620.31;   32.622;  -20.240;   -6.987;52.86279
 620.89;   23.436;  -15.742;  -41.989;39.17768
 621.47;    3.915;  -25.292;   -6.988;29.20693
 622.05;   18.539;  -45.342;   -8.989;63.88140
 622.63;   23.007;  -29.540;  -27.986;52.54683
 623.22;   14.751;  -30.445;  -47.993;45.19576
 623.80;    4.388;  -16.090;  -34.985;20.47768
 624.38;   41.327;  -15.593;   -9.990;56.92023
 624.96;    4.207;  -22.940;  -10.986;27.14736
 625.54;   -1.312;  -44.691;  -41.987;43.37874
 626.13;   13.030;  -32.394;  -63.992;45.42448
 626.71;   66.183;    4.858;  -19.989;61.32449
 627.29;   20.131;  -18.037;  -18.982;38.16811
 627.87;   10.972;  -34.592;  -15.988;45.56332
 628.45;    5.486;  -29.392;  -16.989;34.87768
 629.03;   11.990;  -17.291;    0.013;29.28087
 629.62;   -0.272;  -26.991;  -55.987;26.71864
 630.20;    5.644;  -29.991;  -27.987;35.63512
 630.78;   13.365;  -25.043;   10.010;38.40746
 631.36;    4.520;  -16.239;  -20.985;20.75906
 631.94;    7.829;  -30.143;   -9.990;37.97182
 632.52;    7.518;  -15.044;    2.008;22.56171
 633.10;    6.572;  -18.639;  -43.985;25.21119
 633.68;   25.504;  -30.540;  -28.986;56.04417
 634.27;    4.033;  -24.591;  -16.987;28.62396
 634.85;   14.489;  -27.990;  -22.985;42.47874
 635.43;   13.516;  -23.687;  -14.981;37.20216
 636.01;    3.437;  -27.042;  -45.989;30.47874
 636.59;    9.608;  -28.641;  -14.988;38.24949
 637.17;   23.438;  -28.235;  -62.978;51.67290
 637.75;   20.006;  -29.189;   -9.984;49.19524
 638.33;   37.343;  -25.388;  -23.984;62.73141
 638.91;   37.835;  -19.990;   -2.985;57.82449
 639.50;   50.399;  -35.586;   -1.981;85.98513
 640.08;   46.715;  -26.840;  -67.986;73.55573
 640.66;   55.716;  -40.790;  -76.986;96.50670
 641.24;   57.117;   -9.840;  -59.986;66.95767
 641.82;   51.468;  -27.340;  -89.987;78.80863
 642.40;   52.619;  -22.490;  -12.987;75.10960
 642.98;   32.570;  -31.790;  -55.987;64.36056
 643.56;   25.921;  -23.440;  -18.987;49.36153
 644.14;   17.522;  -40.340;  -15.987;57.86249
 644.72;   24.323;  -33.240;  -46.987;57.56346
 645.30;   32.574;  -19.391;  -36.987;51.96443
 645.88;   14.675;  -17.691;    4.013;32.36539
 646.46;   11.376;  -27.591;  -29.987;38.96636
 647.04;   -3.223;  -28.341;  -33.987;25.11733
 647.62;   31.678;  -24.841;  -57.987;56.51829
 648.20;   10.179;  -26.941;  -30.987;37.11926
 648.78;   14.230;  -20.341;  -57.987;34.57023
 649.36;    5.581;  -23.441;  -40.987;29.02119
 649.94;    9.281;  -30.041;  -84.987;39.32216
 650.52;   -2.168;  -22.141;   -4.987;19.97312
 651.11;    8.333;  -27.341;  -37.987;35.67409
 651.69;   10.934;  -26.241;  -12.987;37.17506
 652.27;    1.985;  -23.691;  -24.987;25.67602
 652.85;    2.136;  -19.341;   -8.987;21.47699
 653.43;    0.937;  -30.091;  -38.987;31.02796
 654.01;    0.388;  -28.641;  -54.987;29.02892
 654.59;   -5.261;  -26.791;  -50.987;21.52989
 655.17;    4.640;  -22.391;  -64.987;27.03086
 655.74;    2.841;  -30.341;  -52.987;33.18182
 656.32;   -3.408;  -18.991;    4.013;15.58279
 656.90;    7.593;  -41.141;  -27.987;48.73376
 657.48;   14.494;  -16.541;  -21.987;31.03472
 658.06;    1.845;  -34.941;  -26.987;36.78569
 658.64;   22.396;  -19.041;  -24.987;41.43665
 659.22;   17.247;  -33.741;  -31.988;50.98762
 659.80;   20.547;  -20.841;    6.012;41.38859
 660.38;   24.298;  -25.641;  -50.988;49.93955
 660.96;   11.449;  -30.241;   28.012;41.69052
 661.54;   23.650;  -32.191;  -24.988;55.84149
 662.12;   26.751;  -25.991;   14.012;52.74245
 662.70;   27.402;  -32.291;  -26.988;59.69342
 663.28;   36.153;  -28.791;  -13.988;64.94439
 663.86;   52.154;  -22.491;  -25.988;74.64535
 664.44;   51.705;  -17.991;  -44.988;69.69632
 665.02;   85.256;  -40.141;  -12.988;125.39729
 665.60;  332.457;  -13.091;   10.012;345.54825
 666.18; 2764.508;  -22.841;  -66.988;2787.34917
 666.75; 5403.759;   -7.941;  -70.988;5411.70017
 667.33; 5878.710;  -22.241;  -46.988;5900.95137
 667.91; 5955.861;   -4.991;   -2.988;5960.85227
 668.49; 5935.062;  -18.991;  -50.988;5954.05298
 669.07; 5751.212;  -21.491;  -73.988;5772.70388
 669.65; 5490.664;  -24.042;  -43.988;5514.70508
 670.23; 4553.415;  -22.392;  -65.988;4575.80608
 670.81; 1655.365;  -35.842;  -57.988;1691.20691
 671.39;  238.366;  -21.392;  -35.988;259.75791
 671.97;   92.067;  -33.592;  -42.988;125.65888
 672.54;   48.968;  -19.292;    4.012;68.25985
 673.12;   45.119;  -22.692;    5.012;67.81081
 673.70;   32.570;  -25.792;  -84.988;58.36178
 674.28;   39.621;  -14.742;  -65.988;54.36275
 674.86;   17.822;  -18.442;  -19.988;36.26371
 675.44;   23.073;  -20.442;  -49.988;43.51468
 676.02;    9.874;  -23.392; -101.988;33.26564
 676.59;   24.925;  -18.592;  -68.989;43.51661
 677.17;    4.276;  -30.392;  -34.989;34.66758
 677.75;    6.427;  -22.242;  -25.989;28.66854
 678.33;    3.478;  -38.092;  -36.989;41.56951
 678.91;    9.329;  -37.242;  -70.989;46.57047
 679.49;    4.380;  -25.092;  -30.989;29.47144
 680.06;    8.580;  -47.142;  -67.989;55.72241
 680.64;    3.531;  -26.842;  -44.989;30.37338
 681.22;   -6.768;  -31.242;  -44.989;24.47434
 681.80;   20.283;  -20.542;  -11.989;40.82531
 682.38;   16.734;  -28.142;    6.011;44.87627
 682.96;   10.935;  -21.492;  -75.989;32.42724
 683.53;   16.386;  -28.042;  -36.989;44.42821
 684.11;    5.387;  -28.242;   -4.989;33.62917
 684.69;    3.388;  -31.192;  -67.989;34.58014
 685.27;   13.789;  -16.942;  -58.989;30.73111
 685.85;   10.090;  -30.892;  -57.989;40.98207
 686.42;  -13.309;  -34.392;  -90.989;21.08304
 687.00;    0.492;  -33.842;  -50.989;34.33400
 687.58;  -15.707;  -22.942;   -1.989; 7.23497
 688.16;  -11.156;  -30.442;  -73.989;19.28594
 688.73;    1.345;  -31.542;  -60.989;32.88690
 689.31;   10.546;  -20.942;   -7.989;31.48787
 689.89;   15.497;  -25.842;  -35.989;41.33884
 690.47;   22.597;  -20.942;   -0.989;43.53980
 691.04;    9.548;  -18.992;  -32.989;28.54077
 691.62;   20.599;  -16.942;   23.011;37.54174
 692.20;    8.950;  -35.442;   -3.989;44.39270
 692.78;   21.651;  -16.942;  -55.989;38.59367
 693.35;   23.402;  -29.692;  -54.989;53.09464
 693.93;   10.803;  -26.343;   -6.990;37.14560
 694.51;   18.304;  -24.493;  -56.990;42.79657
 695.09;   22.455;  -17.593;   18.010;40.04753
 695.66;   15.906;  -35.243;  -43.990;51.14850
 696.24;   29.257;  -40.593;  -35.990;69.84947
 696.82;   41.158;  -27.193;  -17.990;68.35043
 697.39;   42.609;  -33.993;  -40.990;76.60140
 697.97;   55.210;  -28.693;  -38.990;83.90237
 698.55;   62.961;  -37.043;   -1.990;100.00333
 699.13;   45.312;  -32.793;   46.010;78.10430
 699.70;   76.063;  -50.293;  -72.990;126.35526
 700.28;   78.413;  -26.143;  -68.990;104.55623
 700.86;   88.814;  -33.043;    8.010;121.85720
 701.43;   86.265;  -38.293;   29.010;124.55816
 702.01;  115.916;  -29.893;  -62.990;145.80913
 702.59;  124.567;  -29.493;  -46.990;154.06010
 703.16;  171.918;  -28.993;  -48.990;200.91107
 703.74;  260.919;  -31.243;  -11.990;292.16203
 704.32; 1162.070;  -22.093; -103.990;1184.16300
 704.89; 8069.871;  -26.393;   36.010;8096.26405
 705.47;14455.271;  -29.943;  -35.990;14485.21446
 706.05;15643.823;  -20.543;  -62.990;15664.36625
 706.62;15833.424;  -39.093;   -9.990;15872.51685
 707.20;15619.475;  -41.943;  -27.990;15661.41766
 707.78;15372.726;  -32.593;  -27.990;15405.31866
 708.35;14478.026;  -33.693;   10.010;14511.71946
 708.93;11877.628;  -28.593;  -59.990;11906.22105
 709.51; 4302.829;  -37.493;    7.010;4340.32176
 710.08;  694.380;  -25.843;  -75.990;720.22268
 710.66;  255.680;  -16.693;  -17.990;272.37363
 711.23;  162.581;  -36.143;  -84.991;198.72459
 711.81;  100.632;  -31.093;  -33.991;131.72556
 712.39;   99.433;  -34.993;  -34.991;134.42652
 712.96;   75.984;  -44.493;  -69.991;120.47749
 713.54;   67.385;  -26.443;  -46.991;93.82846
 714.11;   51.936;  -29.793;  -30.991;81.72942
 714.69;   53.387;  -29.343;   -2.991;82.73039
 715.27;   50.588;  -22.243;  -69.991;72.83136
 715.84;   53.739;  -24.693;    9.009;78.43232
 716.42;   35.140;  -37.143;   -9.991;72.28329
 716.99;   35.391;  -34.993;  -57.991;70.38425
 717.57;   33.392;  -25.093;  -27.991;58.48522
 718.15;   25.243;  -33.994;  -56.991;59.23619
 718.72;   14.294;  -14.044;  -57.991;28.33715
 719.30;    7.445;  -36.594;   21.009;44.03812
 719.87;   13.846;  -26.494;  -44.991;40.33909
 720.45;   -4.104;  -50.044;   -5.991;45.94005
 721.02;    3.847;  -25.094;  -56.991;28.94102
 721.60;    8.148;  -23.844;   -4.991;31.99199
 722.17;    3.949;  -26.494;  -23.991;30.44295
 722.75;   -2.350;  -24.544;  -50.991;22.19392
 723.33;    3.001;  -27.694;  -50.991;30.69488
 723.90;   13.352;  -18.244;  -64.991;31.59585
 724.48;    0.603;  -36.144;  -58.991;36.74682
 725.05;    9.854;  -32.794;  -35.991;42.64779
 725.63;   28.955;  -16.144;  -25.991;45.09875
 726.20;  260.056;  -33.244;  -47.991;293.29971
 726.78;  797.857;  -35.594;  -64.991;833.45067
 727.35; 1074.008;  -13.844;   28.009;1087.85170
 727.93; 1079.859;  -20.294;  -75.991;1100.15267
 728.50; 1072.610;  -16.694;  -96.992;1089.30355
 729.08; 1055.811;  -34.494;  -51.992;1090.30450
 729.65; 1038.512;  -21.544;   -4.992;1060.05557
 730.23;  939.612;  -25.094;  -13.992;964.70649
 730.80;  585.813;  -23.544;  -21.992;609.35744
 731.38;  140.264;  -32.944;  -20.992;173.20841
 731.95;   28.465;  -21.494;  -21.992;49.95938
 732.53;   -7.134;  -19.494;  -44.992;12.36035
 733.10;  -17.383;  -33.994;  -68.992;16.61131
 733.68;  -12.532;  -26.194;  -34.992;13.66228
 734.25;   -5.781;  -25.444;  -20.992;19.66324
 734.82;  -15.480;  -30.344;   37.008;14.86421
 735.40;  -19.279;  -39.544;  -62.992;20.26518
 735.97;   -8.478;  -17.844;  -22.992; 9.36614
 736.55;    0.323;  -21.444;   16.008;21.76711
 737.12;   -9.576;  -22.994;   -4.992;13.41808
 737.70;  -11.725;  -37.094;    2.008;25.36904
 738.27;  -34.024;  -33.394;  -53.992;-0.62999
 738.85;  -11.123;  -38.494;  -25.992;27.37098
 739.42;  -22.422;  -35.294;  -35.992;12.87194
 739.99;  -16.921;  -38.294;  -42.992;21.37291
 740.57;  -23.021;  -29.144;  -32.992; 6.12387
 741.14;  -18.020;  -33.094;  -44.992;15.07484
 741.72;  -21.919;  -27.644;  -32.992; 5.72581
 742.29;  -25.518;  -32.345;  -47.992; 6.82677
 742.87;  -34.517;  -21.595;  -41.992;-12.92226
 743.44;  -18.666;  -43.745;    9.008;25.07871
 744.01;  -18.865;  -36.895;  -32.992;18.02967
 744.59;  -16.514;  -37.595;  -16.992;21.08064
 745.16;  -11.663;  -29.745;    2.008;18.08161
 745.73;  -18.912;  -23.945;  -68.993; 5.03257
 746.31;  -13.711;  -30.295;  -19.993;16.58354
 746.88;  -20.710;  -41.545;  -84.993;20.83451
 747.46;  -20.509;  -24.745;  -34.993; 4.23547
 748.03;  -19.108;  -37.245;  -20.993;18.13644
 748.60;  -24.907;  -38.095;    1.007;13.18740
 749.18;  -22.956;  -43.795;  -25.993;20.83837
 749.75;  -18.405;  -35.745;  -14.993;17.33934
 750.32;  -23.705;  -39.845;  -39.993;16.14030
 750.90;  -33.654;  -25.945;  -30.993;-7.70873
 751.47;    1.397;  -11.295;  -21.993;12.69224
 752.04;  -27.502;  -26.395;   -6.993;-1.10680
 752.62;  -27.651;  -44.195;   12.007;16.54417
 753.19;  -38.200;  -24.445; -101.993;-13.75486
 753.76;  -36.049;  -43.995;  -47.993; 7.94610
 754.34;  -18.098;  -21.245;    1.007; 3.14707
 754.91;  -26.447;  -37.795;  -35.993;11.34803
 755.48;  -24.696;  -28.695;    6.007; 3.99900
 756.06;  -26.295;  -17.695;  -26.993;-8.60003
 756.63;  -16.844;  -20.945;  -19.993; 4.10093
 757.20;  -41.143;  -30.995;  -21.993;-10.14810
 757.78;  -45.192;  -27.695;  -67.993;-17.49714
 758.35;  -15.191;  -35.745;  -52.993;20.55383
 758.92;  -37.390;  -36.495;  -55.993;-0.89520
 759.50;  -32.289;  -39.395;   -1.993; 7.10576
 760.07;  -38.089;  -26.395;  -46.993;-11.69327
 760.64;  -34.638;  -32.745;  -91.993;-1.89230
 761.21;  -27.887;  -40.145;  -18.993;12.25866
 761.79;  -39.886;  -27.345;  -15.993;-12.54037
 762.36;  -23.385;  -30.095;   -6.993; 6.71060
 762.93;  -25.434;  -40.145;  -41.994;14.71156
 763.50;  -29.983;  -25.445;    0.006;-4.53747
 764.08;  -26.732;  -44.945;  -63.994;18.21350
 764.65;  -18.681;  -22.945;  -41.994; 4.26446
 765.22;  -29.130;  -35.845;  -69.994; 6.71543
 765.79;  -33.779;  -26.145;  -48.994;-7.63361
 766.37;  -24.378;  -24.796;  -45.994; 0.41736
 766.94;  -25.227;  -30.346;   26.006; 5.11833
 767.51;  -32.376;  -29.146;  -26.994;-3.23071
 768.08;  -13.725;  -18.296;  -26.994; 4.57026
 768.66;  -12.624;  -25.446;    3.006;12.82123
 769.23;  -25.973;  -19.446;  -48.994;-6.52781
 769.80;  -23.972;  -31.496;  -28.994; 7.52316
 770.37;  -33.572;  -27.096;  -93.994;-6.47588
 770.94;  -18.271;  -35.996;  -99.994;17.72509
 771.52;  -21.520;  -14.296;  -10.994;-7.22394
 772.09;  -29.419;  -46.196;    5.006;16.77703
 772.66;  -18.568;  -28.846;   17.006;10.27799
 773.23;  -18.867;  -30.746;  -48.994;11.87896
 773.80;  -21.166;  -31.346;    4.006;10.17992
 774.38;  -16.315;  -33.546;  -45.994;17.23089
 774.95;  -23.314;  -24.946;   -9.994; 1.63186
 775.52;    2.537;  -41.596;  -15.994;44.13282
 776.09;   32.538;  -28.996;  -16.994;61.53379
 776.66;   32.739;  -38.646;    6.006;71.38476
 777.24;   43.190;  -20.896;  -44.994;64.08572
 777.81;   51.241;  -19.196; -102.994;70.43669
 778.38;   47.692;  -33.696;  -39.994;81.38766
 778.95;   44.593;  -31.346;  -16.994;75.93862
 779.52;   37.844;  -20.796;  -44.994;58.63959
 780.09;   27.794;  -20.796;  -46.995;48.59055
 780.66;  -20.505;  -43.496;  -95.995;22.99152
 781.24;  -15.704;  -34.096;  -37.995;18.39248
 781.81;  -23.553;  -27.996;  -54.995; 4.44345
 782.38;  -26.752;  -41.196;  -62.995;14.44442
 782.95;  -28.101;  -31.646;  -65.995; 3.54539
 783.52;  -38.400;  -34.146;  -63.995;-4.25365
 784.09;  -29.999;  -22.296;  -50.995;-7.70268
 784.66;  -23.848;  -16.596;  -55.995;-7.25171
 785.23;  -40.747;  -34.046;   30.005;-6.70075
 785.80;  -28.746;  -30.446;  -14.995; 1.70022
 786.38;  -26.795;  -27.546;   -9.995; 0.75118
 786.95;  -17.844;  -19.996;  -75.995; 2.15215
 787.52;  -36.893;  -32.496;  -41.995;-4.39688
 788.09;  -36.392;  -39.646;  -12.995; 3.25408
 788.66;  -35.791;  -33.746;  -13.995;-2.04495
 789.23;  -20.340;  -13.896;  -68.995;-6.44398
 789.80;  -34.989;  -25.596;    0.005;-9.39302
 790.37;  -30.089;  -22.497;  -70.995;-7.59205
 790.94;  -12.388;  -15.647;   21.005; 3.25891
 791.51;  -25.487;  -36.547;    3.005;11.05988
 792.08;  -45.936;  -43.997;  -62.995;-1.93915
 792.65;  -14.385;  -41.797;   -5.995;27.41181
 793.22;  -27.734;  -26.347;   -3.995;-1.38722
 793.80;  -31.833;  -29.597;    6.005;-2.23626
 794.37;  -33.382;  -21.997;  -64.995;-11.38529
 794.94;  -18.831;  -25.297;  -69.995; 6.46568
 795.51;  -30.630;  -29.347;   -8.995;-1.28336
 796.08;  -21.629;  -17.747;  -57.995;-3.88239
 796.65;  -29.678;  -26.997;  -48.995;-2.68142
 797.22;  -32.427;  -36.047;  -46.996; 3.61954
 797.79;  -14.976;  -18.297;    9.004; 3.32051
 798.36;  -25.625;  -37.947;  -12.996;12.32148
 798.93;  -34.874;  -38.047;  -10.996; 3.17244
 799.50;  -40.873;  -40.147;  -14.996;-0.72659
 800.07;  -41.673;  -26.147;  -39.996;-15.52563
 800.64;  -25.272;  -39.097;   10.004;13.82534
 801.21;  -31.571;  -43.547;  -74.996;11.97631
 801.78;  -27.320;  -20.397;  -57.996;-6.92273
 802.35;  -36.619;  -44.747;  -59.996; 8.12824
 802.92;  -25.068;  -39.247;   12.004;14.17921
 803.49;  -33.467;  -24.547;   17.004;-8.91983
 804.06;  -23.166;  -45.647;  -63.996;22.48114
 804.63;  -27.165;  -27.597;   -4.996; 0.43211
 805.20;  -28.564;  -29.447;  -51.996; 0.88307
 805.77;  -43.063;  -42.597;  -47.996;-0.46596
 806.34;  -42.662;  -36.097;  -27.996;-6.56499
 806.91;  -26.411;  -33.197;  -29.996; 6.78597
 807.47;  -43.560;  -37.147;   25.004;-6.41306
 808.04;  -23.009;  -30.447;  -21.996; 7.43790
 808.61;  -30.308;  -45.447;  -41.996;15.13887
 809.18;  -27.357;  -35.397;  -25.996; 8.03983
 809.75;  -27.757;  -41.997;  -34.996;14.24080
 810.32;  -38.256;  -36.347;  -51.996;-1.90823
 810.89;  -17.205;  -36.147;  -12.996;18.94274
 811.46;  -30.854;  -34.497;   27.004; 3.64370
 812.03;  -40.253;  -27.347;  -68.996;-12.90533
 812.60;  -31.252;  -34.097;  -71.996; 2.84564
 813.17;  -37.051;  -46.247;  -55.996; 9.19660
 813.74;  -30.300;  -30.097;  -32.996;-0.20243
 814.31;  -26.199;  -27.448;  -66.996; 1.24853
 814.87;  -37.148;  -34.348;  -38.997;-2.80050
 815.44;  -31.347;  -22.998;  -49.997;-8.34953
 816.01;  -29.446;  -16.948;  -43.997;-12.49857
 816.58;  -42.895;  -45.498;   -4.997; 2.60240
 817.15;  -20.494;  -27.748;  -15.997; 7.25336
 817.72;  -19.143;  -39.498;  -25.997;20.35433
 818.29;  -27.292;   -9.048;  -24.997;-18.24470
 818.86;  -22.641;  -25.098;  -63.997; 2.45626
 819.42;  -26.640;  -25.848;  -86.997;-0.79277
 819.99;  -24.940;  -47.548;  -25.997;22.60820
 820.56;  -37.539;  -37.548;  -26.997; 0.00916
 821.13;  -40.638;  -25.148;  -52.997;-15.48987
 821.70;  -41.587;  -32.348;  -31.997;-9.23891
 822.27;  -26.886;  -34.048;  -51.997; 7.16206
 822.84;  -33.935;  -34.398;  -58.997; 0.46303
 823.40;  -39.584;  -40.148;  -49.997; 0.56400
 823.97;  -23.283;  -33.798;  -66.997;10.51496
 824.54;  -35.232;  -39.698;  -75.997; 4.46593
 825.11;  -43.931;  -39.748;  -47.997;-4.18311
 825.68;  -14.730;  -25.648;  -99.997;10.91786
 826.24;  -30.129;  -33.048;  -68.997; 2.91883
 826.81;  -40.578;  -32.648;  -41.997;-7.93021
 827.38;  -40.277;  -30.998;  -61.997;-9.27924
 827.95;  -14.476;  -45.698;  -97.997;31.22172
 828.52;  -31.925;  -34.298;  -21.997; 2.37269
 829.08;  -28.774;  -36.648;  -62.997; 7.87366
 829.65;  -36.024;  -26.748;  -42.997;-9.27537
 830.22;  -19.823;  -39.348;  -22.997;19.52559
 830.79;  -39.172;  -24.948;  -40.997;-14.22344
 831.36;  -22.971;  -39.548;  -28.998;16.57752
 831.92;  -12.570;  -18.348;  -43.998; 5.77849
 832.49;  -32.069;  -42.898;   -9.998;10.82946
 833.06;  -22.468;  -34.348;  -37.998;11.88042
 833.63;  -25.817;  -28.298;   49.002; 2.48139
 834.19;  -33.416;  -34.698;  -18.998; 1.28236
 834.76;  -37.165;  -38.698;    2.002; 1.53332
 835.33;  -31.764;  -30.048;  -26.998;-1.71571
 835.90;  -22.213;  -44.298;  -46.998;22.08525
 836.46;  -43.062;  -26.648;  -17.998;-16.41378
 837.03;  -40.411;  -36.498;  -17.998;-3.91282
 837.60;  -34.510;  -42.498;  -22.998; 7.98816
 838.17;  -27.459;  -39.949;  -17.998;12.48912
 838.73;  -34.558;  -24.149;  -15.998;-10.40991
 839.30;  -29.657;  -34.499;  -42.998; 4.84105
 839.87;  -31.507;  -25.549;  -54.998;-5.95798
 840.43;  -34.856;  -36.549;  -25.998; 1.69299
 841.00;  -28.005;  -32.849;  -84.998; 4.84395
 841.57;  -25.404;  -31.949;  -35.998; 6.54492
 842.14;  -44.503;  -38.449;  -59.998;-6.05412
 842.70;  -26.002;  -28.449;  -71.998; 2.44685
 843.27;  -35.051;  -24.199;  -22.998;-10.85218
 843.84;  -18.450;  -32.799;   -6.998;14.34879
 844.40;  -23.099;  -30.599;  -17.998; 7.49975
 844.97;  -28.398;  -36.549;  -53.998; 8.15072
 845.54;  -23.747;  -40.299;  -81.998;16.55168
 846.10;  -22.246;  -27.649;   -1.998; 5.40265
 846.67;  -23.795;  -33.199;   -3.998; 9.40361
 847.24;  -34.894;  -27.049;  -48.998;-7.84542
 847.80;  -45.393;  -28.649;  -24.998;-16.74445
 848.37;  -34.892;  -36.099;  -68.998; 1.20652
 848.94;  -16.941;  -34.149;  -32.999;17.20748
 849.50;  -21.241;  -38.349;    4.001;17.10845
 850.07;  -32.140;  -19.899;  -76.999;-12.24059
 850.63;  -35.489;  -32.599;  -48.999;-2.88962
 851.20;  -39.688;  -26.049;  -14.999;-13.63865
 851.77;  -45.937;  -45.099;  -12.999;-0.83769
 852.33;  -24.886;  -21.799;  -31.999;-3.08672
 852.90;  -28.985;  -32.899;  -70.999; 3.91425
 853.47;  -36.184;  -13.149;  -14.999;-23.03479
 854.03;  -29.483;  -32.199;  -17.999; 2.71618
 854.60;  -33.682;  -31.899;   -6.999;-1.78285
 855.16;  -33.081;  -32.099;  -75.999;-0.98189
 855.73;  -35.180;  -32.849;  -69.999;-2.33092
 856.30;  -23.729;  -30.749;  -73.999; 7.02004
 856.86;  -31.828;  -29.149;  -34.999;-2.67899
 857.43;  -17.427;  -25.649;  -43.999; 8.22198
 857.99;  -45.526;  -32.599;  -87.999;-12.92706
 858.56;  -31.925;  -42.249;  -12.999;10.32391
 859.12;  -41.125;  -35.649;  -42.999;-5.47513
 859.69;  -53.624;  -38.449;  -61.999;-15.17416
 860.26;  -42.173;  -41.399;  -49.999;-0.77319
 860.82;  -36.672;  -38.399;  -31.999; 1.72778
 861.39;  -36.771;  -35.699;  -52.999;-1.07126
 861.95;  -21.420;  -42.200;  -55.999;20.77971
 862.52;  -30.969;  -24.600;    3.001;-6.36933
 863.08;  -39.718;  -39.850;  -60.999; 0.13164
 863.65;  -23.567;  -32.800;  -69.999; 9.23261
 864.21;  -40.766;  -41.800;  -36.999; 1.03357
 864.78;  -29.615;  -23.900;  -71.999;-5.71546
 865.34;   -2.564;  -16.650;  -53.000;14.08550
 865.91;  -36.763;  -28.650;   21.000;-8.11353
 866.47;  -28.262;  -43.500;  -51.000;15.23744
 867.04;  -24.111;  -26.600;  -29.000; 2.48840
 867.61;  -32.260;  -45.450;   -6.000;13.18937
 868.17;  -41.509;  -36.050;  -81.000;-5.45966
 868.74;  -26.408;  -40.550;   24.000;14.14130
 869.30;  -25.058;  -32.550;  -58.000; 7.49227
 869.86;  -33.407;  -34.500;  -47.000; 1.09324
 870.43;  -39.506;  -37.650;  -43.000;-1.85580
 870.99;  -47.155;  -40.300;  -27.000;-6.85483
 871.56;  -39.304;  -26.600;  -54.000;-12.70387
 872.12;  -32.953;  -39.550;  -67.000; 6.59710
 872.69;  -32.152;  -32.550;   26.000; 0.39807
 873.25;  -42.201;  -31.950;  -58.000;-10.25097
 873.82;  -36.450;  -38.950;  -74.000; 2.50000
 874.38;  -22.100;  -37.100;  -67.000;15.00000
 874.95;  -31.100;  -28.500;  -28.000;-2.60000
 875.51;  -38.100;  -30.650;  -17.000;-7.45000
 876.08;  -44.950;  -40.700;  -19.000;-4.25000
 876.64;  -37.450;  -44.900;  -41.000; 7.45000
 877.20;  -34.200;  -37.650;  -72.000; 3.45000
 877.77;  -22.650;  -55.250;  -14.000;32.60000
 878.33;  -37.200;  -28.450;  -15.000;-8.75000
 878.90;  -39.700;  -37.200;  -54.000;-2.50000
 879.46;  -26.550;  -28.450;  -57.000; 1.90000
 880.03;  -28.850;  -30.200;  -48.000; 1.35000
 880.59;  -38.250;  -21.250;   13.000;-17.00000
 881.15;  -27.050;  -43.550;  -44.000;16.50000
 881.72;  -51.500;  -31.800;  -21.000;-19.70000
 882.28;  -23.750;  -35.150;  -19.000;11.40000
 882.85;  -35.600;  -37.200;  -46.000; 1.60000
 883.41;  -15.450;  -43.450; -104.000;28.00000
 883.97;    0.800;    0.500;    4.000; 0.30000
 884.54;  -30.200;  -29.500;  -17.000;-0.70000
 885.10;  -39.300;  -29.250;  -40.000;-10.05000
 885.66;  -22.850;  -22.950;  -93.000; 0.10000
 886.23;  -31.300;  -28.700;  -20.000;-2.60000
 886.79;  -26.100;  -34.250;   24.000; 8.15000
 887.36;  -31.400;  -32.550;  -63.000; 1.15000
 887.92;  -43.500;  -38.900;   42.000;-4.60000
 888.48;  -34.250;  -32.600;  -21.000;-1.65000
 889.05;  -28.000;  -48.600;  -16.000;20.60000
 889.61;  -48.000;  -19.900;  -12.000;-28.10000
 890.17;  -34.650;  -36.250;  -16.000; 1.60000
 890.74;  -34.850;  -27.650;  -27.000;-7.20000
 891.30;  -44.050;  -43.750;  -23.000;-0.30000
 891.86;  -44.600;  -40.600;  -62.000;-4.00000
 892.43;  -37.100;  -45.350;  -38.000; 8.25000
 892.99;  -39.450;  -38.850; -108.000;-0.60000
 893.55;  -39.850;  -40.300;  -56.000; 0.45000
 894.11;  -43.050;  -26.900;  -32.000;-16.15000
 894.68;  -31.550;  -38.500; -121.000; 6.95000
 895.24;  -37.250;  -28.350;  -11.000;-8.90000
 895.80;  -36.200;  -49.250;  -80.000;13.05000
 896.37;  -43.050;  -46.450;  -46.000; 3.40000
 896.93;  -29.450;  -32.000;  -86.000; 2.55000
 897.49;  -31.350;  -37.000;  -57.000; 5.65000
 898.05;  -29.500;  -38.550;  -40.000; 9.05000
 898.62;  -22.200;  -29.400;  -40.000; 7.20000
 899.18;  -41.650;  -37.200;  -77.000;-4.45000
 899.74;  -16.250;  -34.300;   -7.000;18.05000
 900.31;  -48.250;  -39.100;  -59.000;-9.15000
 900.87;  -35.150;  -41.750;  -56.000; 6.60000
 901.43;  -32.050;  -39.850;    2.000; 7.80000
 901.99;  -47.700;  -45.700;  -55.000;-2.00000
 902.56;  -33.950;  -33.950;  -48.000; 0.00000
 903.12;  -15.050;  -26.050;  -46.000;11.00000
 903.68;  -21.000;  -37.350;  -22.000;16.35000
 904.24;  -38.250;  -18.650;  -23.000;-19.60000
 904.80;  -31.100;  -31.900;  -52.000; 0.80000
 905.37;  -46.700;  -23.800;  -30.000;-22.90000
 905.93;  -22.100;  -31.600;  -91.000; 9.50000
 906.49;  -35.350;  -42.750;  -47.000; 7.40000
 907.05;  -40.550;  -39.450;   40.000;-1.10000
 907.61;  -34.500;  -40.350;  -42.000; 5.85000
 908.18;  -18.100;  -31.450;  -57.000;13.35000
 908.74;  -30.400;  -37.550;   -6.000; 7.15000
 909.30;  -41.750;  -44.150;  -40.000; 2.40000
 909.86;  -25.650;  -42.050;  -48.000;16.40000
 910.42;  -39.600;  -36.000;  -35.000;-3.60000
 910.99;  -21.550;  -18.900;  -23.000;-2.65000
 911.55;  -18.650;  -35.600;  -41.000;16.95000
 912.11;  -28.050;  -32.150;   18.000; 4.10000
 912.67;  -23.200;  -40.900;  -46.000;17.70000
 913.23;  -28.500;  -45.350;   44.000;16.85000
 913.79;  -17.350;  -49.950;  -12.000;32.60000
 914.36;  -26.950;  -40.800;   -1.000;13.85000
 914.92;  -28.350;  -24.300;  -97.000;-4.05000
 915.48;  -36.200;  -31.900;  -73.000;-4.30000
 916.04;  -15.350;  -30.950;    0.000;15.60000
 916.60;  -40.300;  -33.300;  -46.000;-7.00000
 917.16;  -33.900;  -45.150;  -43.000;11.25000
 917.72;  -41.200;  -33.950;  -49.000;-7.25000
 918.28;  -34.700;  -42.550;  -41.000; 7.85000
 918.85;  -34.150;  -31.550;  -34.000;-2.60000
 919.41;  -31.300;  -39.450;  -55.000; 8.15000
 919.97;  -49.000;  -26.150;  -56.000;-22.85000
 920.53;  -34.200;  -47.600;  -71.000;13.40000
 921.09;  -30.350;  -30.000;  -11.000;-0.35000
 921.65;  -36.000;  -41.500;  -59.000; 5.50000
 922.21;  -40.550;  -34.500;  -56.000;-6.05000
 922.77;  -38.650;  -46.150;  -92.000; 7.50000
 923.33;  -26.800;  -51.350;  -86.000;24.55000
 923.89;  -36.150;  -34.350;  -12.000;-1.80000
 924.45;  -39.250;  -36.650;  -12.000;-2.60000
 925.01;  -25.100;  -33.400;  -64.000; 8.30000
 925.58;  -43.950;  -34.350;  -80.000;-9.60000
 926.14;  -34.750;  -35.400;  -63.000; 0.65000
 926.70;  -39.750;  -48.300;    2.000; 8.55000
 927.26;  -15.200;  -31.050;  -28.000;15.85000
 927.82;  -25.650;  -33.950;  -36.000; 8.30000
 928.38;  -42.750;  -39.050;  -56.000;-3.70000
 928.94;  -41.350;  -32.900;  -70.000;-8.45000
 929.50;  -36.450;  -40.750;  -47.000; 4.30000
 930.06;  -38.850;  -37.300;  -12.000;-1.55000
 930.62;  -22.650;  -47.450;  -58.000;24.80000
 931.18;  -39.850;  -31.300;  -20.000;-8.55000
 931.74;  -40.050;  -48.400;  -59.000; 8.35000
 932.30;  -27.500;  -23.100;  -68.000;-4.40000
 932.86;  -39.800;  -45.150;  -52.000; 5.35000
 933.42;  -25.550;  -30.850;  -49.000; 5.30000
 933.98;  -26.250;  -26.750;  -22.000; 0.50000
 934.54;  -43.050;  -31.800;  -58.000;-11.25000
 935.10;  -39.050;  -47.950;  -30.000; 8.90000
 935.66;  -25.600;  -31.950;  -32.000; 6.35000
 936.22;  -31.650;  -39.050;  -13.000; 7.40000
 936.78;  -40.500;  -45.700;  -33.000; 5.20000
 937.34;  -29.650;  -47.650;   29.000;18.00000
 937.90;  -35.800;  -28.100;  -13.000;-7.70000
 938.46;  -36.450;  -45.450;  -50.000; 9.00000
 939.02;  -31.450;  -38.000;  -35.000; 6.55000
 939.58;  -36.500;  -48.100;  -61.000;11.60000
 940.14;  -45.300;  -45.450;  -34.000; 0.15000
 940.70;  -31.050;  -41.150;  -15.000;10.10000
 941.25;  -42.650;  -50.250; -119.000; 7.60000
 941.81;  -34.050;  -41.300;  -30.000; 7.25000
 942.37;  -27.400;  -24.350;  -53.000;-3.05000
 942.93;  -33.450;  -41.550;  -57.000; 8.10000
 943.49;  -31.000;  -35.250;  -22.000; 4.25000
 944.05;  -36.650;  -52.300;  -66.000;15.65000
 944.61;  -30.050;  -24.650;  -87.000;-5.40000
 945.17;  -41.300;  -47.350;  -41.000; 6.05000
 945.73;  -47.900;  -43.650;   13.000;-4.25000
 946.29;  -35.800;  -38.550;  -59.000; 2.75000
 946.85;  -36.050;  -43.550;  -75.000; 7.50000
 947.40;  -36.550;  -51.800;  -54.000;15.25000
 947.96;  -38.350;  -32.000;   -3.000;-6.35000
 948.52;  -38.950;  -38.650;  -62.000;-0.30000
 949.08;  -34.350;  -36.750;  -62.000; 2.40000
 949.64;  -19.100;  -31.500;  -54.000;12.40000
 950.20;  -34.450;  -33.150;  -97.000;-1.30000
 950.76;  -37.600;  -33.650;  -46.000;-3.95000
 951.32;  -39.300;  -28.250;  -17.000;-11.05000
 951.87;  -40.250;  -35.300;  -69.000;-4.95000
 952.43;  -48.950;  -19.000;   -9.000;-29.95000
 952.99;  -14.350;  -36.450;  -25.000;22.10000
 953.55;  -33.050;  -30.750;  -67.000;-2.30000
 954.11;  -32.100;  -43.650;  -81.000;11.55000
 954.67;  -31.950;  -37.100;  -23.000; 5.15000
 955.22;  -35.250;  -51.100;  -39.000;15.85000
 955.78;  -18.250;  -26.750;  -53.000; 8.50000
 956.34;  -42.400;  -44.850;  -46.000; 2.45000
 956.90;  -37.000;  -37.600;  -67.000; 0.60000
 957.46;  -33.650;  -54.000;  -50.000;20.35000
 958.01;  -25.350;  -27.350;  -44.000; 2.00000
 958.57;  -27.200;  -33.700;  -57.000; 6.50000
 959.13;  -27.350;  -37.700;  -55.000;10.35000
 959.69;  -39.800;  -47.750;  -68.000; 7.95000
 960.25;  -42.750;  -36.650;  -41.000;-6.10000
 960.80;  -26.150;  -31.400;  -40.000; 5.25000
 961.36;  -41.500;  -27.850;  -45.000;-13.65000
 961.92;  -44.300;  -45.100;  -84.000; 0.80000
 962.48;  -36.400;  -41.900;  -30.000; 5.50000
 963.03;  -27.400;  -33.300;  -45.000; 5.90000
 963.59;  -26.500;  -34.250;  -14.000; 7.75000
 964.15;  -34.850;  -25.150;  -85.000;-9.70000
 964.71;  -39.150;  -36.750;  -38.000;-2.40000
 965.26;  -38.200;  -41.400;   15.000; 3.20000
 965.82;  -37.600;  -36.150;  -39.000;-1.45000
 966.38;  -25.200;  -43.050;  -33.000;17.85000
 966.94;  -32.400;  -40.750;  -35.000; 8.35000
 967.49;  -35.650;  -41.350;  -41.000; 5.70000
 968.05;  -45.750;  -46.000;   23.000; 0.25000
 968.61;  -24.300;  -38.950;  -68.000;14.65000
 969.17;  -29.950;  -38.700;  -41.000; 8.75000
 969.72;  -44.050;  -46.050;  -14.000; 2.00000
 970.28;  -35.250;  -35.000;  -39.000;-0.25000
 970.84;  -46.150;  -45.800;  -35.000;-0.35000
 971.39;  -35.200;  -46.300;  -24.000;11.10000
 971.95;  -50.500;  -49.800;  -69.000;-0.70000
 972.51;  -48.750;  -42.150;   15.000;-6.60000
 973.06;  -27.150;  -28.900;  -54.000; 1.75000
 973.62;  -36.200;  -35.700;  -56.000;-0.50000
 974.18;  -45.400;  -32.350;  -24.000;-13.05000
 974.73;  -42.450;  -48.800;  -43.000; 6.35000
 975.29;  -24.550;  -30.250;  -17.000; 5.70000
 975.85;  -33.500;  -48.450;  -55.000;14.95000
 976.40;  -27.500;  -39.850;  -38.000;12.35000
 976.96;  -47.950;  -35.250;  -54.000;-12.70000
 977.52;  -38.050;  -35.150;  -42.000;-2.90000
 978.07;  -40.650;  -32.600;  -15.000;-8.05000
 978.63;  -42.400;  -34.400;  -54.000;-8.00000
 979.19;  -19.800;  -34.250;  -75.000;14.45000
 979.74;  -27.700;  -37.500;  -43.000; 9.80000
 980.30;  -42.850;  -45.550;  -29.000; 2.70000
 980.85;  -46.450;  -48.100;   -2.000; 1.65000
 981.41;  -48.900;  -42.650;  -41.000;-6.25000
 981.97;  -42.150;  -46.850;  -62.000; 4.70000
 982.52;  -38.950;  -43.050;  -78.000; 4.10000
 983.08;  -37.750;  -44.200;  -59.000; 6.45000
 983.63;  -54.950;  -41.550;    5.000;-13.40000
 984.19;  -37.100;  -40.900;  -67.000; 3.80000
 984.75;  -56.100;  -34.750;  -23.000;-21.35000
 985.30;  -44.200;  -44.300;  -51.000; 0.10000
 985.86;  -44.200;  -37.100;  -16.000;-7.10000
 986.41;  -31.700;  -41.200;  -36.000; 9.50000
 986.97;  -32.200;  -46.400;  -48.000;14.20000
 987.52;  -41.700;  -47.050; -140.000; 5.35000
 988.08;  -45.900;  -47.400;   -2.000; 1.50000
 988.64;  -35.700;  -55.050;  -36.000;19.35000
 989.19;  -55.100;  -35.800;  -62.000;-19.30000
 989.75;  -24.200;  -31.300;   28.000; 7.10000
 990.30;  -44.150;  -41.450;   -4.000;-2.70000
 990.86;  -39.100;  -49.250;  -81.000;10.15000
 991.41;  -38.750;  -34.600;  -60.000;-4.15000
 991.97;  -31.900;  -50.400;   -9.000;18.50000
 992.52;  -40.150;  -45.150;  -26.000; 5.00000
 993.08;  -45.700;  -40.850;  -28.000;-4.85000
 993.63;  -49.700;  -44.950;  -23.000;-4.75000
 994.19;  -24.250;  -46.400;  -10.000;22.15000
 994.74;  -39.000;  -39.950;  -29.000; 0.95000
 995.30;  -56.300;  -52.950;  -63.000;-3.35000
 995.85;  -46.100;  -38.000;  -12.000;-8.10000
 996.41;  -42.300;  -47.350;  -36.000; 5.05000
 996.96;  -32.450;  -42.350;  -53.000; 9.90000
 997.52;  -27.600;  -29.350;  -69.000; 1.75000
 998.07;  -37.800;  -55.000;  -78.000;17.20000
 998.63;  -49.150;  -47.550;  -22.000;-1.60000
 999.18;  -42.000;  -35.100;  -34.000;-6.90000
 999.74;  -31.350;  -40.850;  -53.000; 9.50000
1000.29;  -40.500;  -47.300;  -59.000; 6.80000
1000.85;  -40.650;  -34.850;  -57.000;-5.80000
1001.40;  -45.400;  -33.750;  -31.000;-11.65000
1001.96;  -47.050;  -45.500;   -7.000;-1.55000
1002.51;  -34.050;  -31.700;  -61.000;-2.35000
1003.06;  -40.150;  -47.950;  -26.000; 7.80000
1003.62;  -29.850;  -39.300;  -37.000; 9.45000
1004.17;  -49.100;  -48.150;  -40.000;-0.95000
1004.73;  -52.950;  -35.500;  -22.000;-17.45000
1005.28;  -18.000;  -31.250;  -21.000;13.25000
1005.83;  -55.500;  -44.750;    1.000;-10.75000
1006.39;  -34.850;  -51.350;  -41.000;16.50000
1006.94;  -47.600;  -37.200;  -40.000;-10.40000
1007.50;  -32.950;  -36.400;  -41.000; 3.45000
1008.05;  -43.150;  -40.300;  -79.000;-2.85000
1008.60;  -37.750;  -43.800;  -52.000; 6.05000
1009.16;  -37.950;  -39.000;  -31.000; 1.05000
1009.71;  -26.150;  -38.250;  -64.000;12.10000
1010.27;  -37.400;  -36.850;  -83.000;-0.55000
1010.82;  -39.050;  -34.900;  -50.000;-4.15000
1011.37;  -27.900;  -32.950;  -46.000; 5.05000
1011.93;  -33.400;  -42.350;  -26.000; 8.95000
1012.48;  -31.250;  -29.350;  -44.000;-1.90000
1013.03;  -39.000;  -33.550;  -74.000;-5.45000
1013.59;  -38.650;  -30.800;  -35.000;-7.85000
1014.14;  -29.300;  -45.700;  -17.000;16.40000
1014.69;  -35.200;  -28.850;  -57.000;-6.35000
1015.25;  -17.200;  -30.300;  -64.000;13.10000
1015.80;  -38.000;  -40.600;  -39.000; 2.60000
1016.35;  -43.100;  -54.050;  -72.000;10.95000
1016.91;  -48.100;  -30.750;   -5.000;-17.35000
1017.46;  -41.200;  -42.750;  -25.000; 1.55000
1018.01;  -42.000;  -29.900;  -90.000;-12.10000
1018.57;  -46.150;  -37.750; -106.000;-8.40000
1019.12;  -38.700;  -48.450;  -32.000; 9.75000
1019.67;  -38.100;  -37.450;  -31.000;-0.65000
1020.23;  -30.000;  -26.350;  -79.000;-3.65000
1020.78;  -33.300;  -42.200;  -45.000; 8.90000
1021.33;  -31.700;  -36.500;  -87.000; 4.80000
1021.88;  -29.750;  -41.350;  -18.000;11.60000
1022.44;  -25.550;  -39.050;  -94.000;13.50000
1022.99;  -44.250;  -44.300; -112.000; 0.05000
1023.54;  -33.950;  -42.000;  -79.000; 8.05000
1024.09;  -24.250;  -32.500;  -80.000; 8.25000
1024.65;  -34.000;  -39.750;  -35.000; 5.75000
1025.20;  -36.250;  -52.900;  -45.000;16.65000
1025.75;  -40.850;  -48.350;  -28.000; 7.50000
1026.30;  -36.600;  -47.050;  -76.000;10.45000
1026.86;  -40.100;  -51.500;  -66.000;11.40000
1027.41;  -26.500;  -41.300;  -38.000;14.80000
1027.96;  -39.700;  -40.500;  -23.000; 0.80000
1028.51;  -20.550;  -45.500;  -68.000;24.95000
1029.07;  -44.700;  -39.450;  -52.000;-5.25000
1029.62;  -30.150;  -43.450;  -95.000;13.30000
1030.17;  -41.400;  -40.750;  -67.000;-0.65000
1030.72;  -28.500;  -38.500;  -22.000;10.00000
1031.27;  -41.400;  -45.500;  -60.000; 4.10000
1031.83;  -41.550;  -45.150;  -52.000; 3.60000
1032.38;  -22.250;  -40.500;  -68.000;18.25000
1032.93;  -46.250;  -39.150;  -64.000;-7.10000
1033.48;  -35.200;  -27.650;  -49.000;-7.55000
1034.03;  -32.600;  -43.500;    8.000;10.90000
1034.58;  -34.950;  -20.950;  -46.000;-14.00000
1035.14;  -41.900;  -44.300;  -42.000; 2.40000
1035.69;  -43.700;  -46.850;  -32.000; 3.15000
1036.24;  -42.250;  -44.050;  -43.000; 1.80000
1036.79;  -39.250;  -43.550;  -30.000; 4.30000
1037.34;  -37.950;  -40.500; -111.000; 2.55000
1037.89;  -25.400;  -48.850;  -25.000;23.45000
1038.45;  -43.750;  -43.500;  -34.000;-0.25000
1039.00;  -48.750;  -42.500;  -34.000;-6.25000
1039.55;  -48.600;  -49.350;  -19.000; 0.75000
1040.10;  -32.000;  -28.750;  -22.000;-3.25000
1040.65;  -48.700;  -35.200;  -19.000;-13.50000
1041.20;  -37.600;  -39.750;  -23.000; 2.15000
1041.75;  -33.200;  -48.350;  -45.000;15.15000
1042.30;  -41.750;  -54.350;  -26.000;12.60000
1042.85;  -32.650;  -45.250;  -31.000;12.60000
1043.41;  -27.650;  -31.050;  -70.000; 3.40000
1043.96;  -39.000;  -51.500;  -14.000;12.50000
1044.51;  -49.550;  -43.500;  -67.000;-6.05000
1045.06;  -36.400;  -50.350;  -53.000;13.95000
1045.61;  -41.850;  -33.600;  -44.000;-8.25000
1046.16;  -30.500;  -41.900;  -57.000;11.40000
1046.71;  -43.500;  -48.400;  -83.000; 4.90000
1047.26;  -43.550;  -40.950; -102.000;-2.60000
1047.81;  -47.800;  -44.150; -101.000;-3.65000
1048.36;  -39.650;  -56.900;  -92.000;17.25000
1048.91;   85.650;   50.450;  -61.000;35.20000
1049.46;  -22.300;  -33.050;  -58.000;10.75000
1050.01;  -39.550;  -48.800;  -15.000; 9.25000
1050.56;  -42.950;  -48.550;  -89.000; 5.60000
1051.11;  -33.200;  -35.600;  -12.000; 2.40000
1051.66;  -39.250;  -45.700;  -19.000; 6.45000
1052.21;  -48.750;  -43.650;  -33.000;-5.10000
1052.76;  -27.100;  -54.600;  -36.000;27.50000
1053.31;  -47.300;  -41.600;  -73.000;-5.70000
1053.86;  -38.450;  -51.100;  -78.000;12.65000
1054.41;  -35.350;  -43.550;  -44.000; 8.20000
1054.96;  -47.700;  -45.700; -117.000;-2.00000
1055.51;   -1.750;  -19.500;  -98.000;17.75000
1056.06;  -43.500;  -46.850;  -69.000; 3.35000
1056.61;  -30.800;  -21.550;  -25.000;-9.25000
1057.16;  -39.100;  -44.800;  -50.000; 5.70000
1057.71;  -53.750;  -41.900;  -59.000;-11.85000
1058.26;  -37.100;  -52.700;  -47.000;15.60000
1058.81;  -33.000;  -35.850;  -83.000; 2.85000
1059.36;  -50.650;  -56.250;  -79.000; 5.60000
1059.91;  -46.500;  -31.850;  -69.000;-14.65000
1060.46;  -34.100;  -47.600;   30.000;13.50000
1061.01;  -38.400;  -42.900; -110.000; 4.50000
1061.56;  -44.950;  -58.300;  -46.000;13.35000
1062.11;  -36.100;  -30.000;  -66.000;-6.10000
1062.66;  -28.150;  -40.000;  -21.000;11.85000
1063.21;  -50.600;  -56.250;  -15.000; 5.65000
1063.76;  -39.250;  -46.900;  -61.000; 7.65000
1064.31;  -47.200;  -31.500;  -45.000;-15.70000
1064.86;  -42.950;  -58.100;  -17.000;15.15000
1065.40;  -27.950;  -21.900;  -31.000;-6.05000
1065.95;  -22.650;  -34.450;    2.000;11.80000
1066.50;  -18.150;  -41.650;  -29.000;23.50000
1067.05;  -35.450;  -45.800;  -53.000;10.35000
1067.60;  -20.700;  -38.000;  -53.000;17.30000
1068.15;  -31.100;  -54.600;  -12.000;23.50000
1068.70;  -37.300;  -50.450;  -41.000;13.15000
1069.25;  -21.400;  -46.500;  -85.000;25.10000
1069.79;  -36.050;  -47.050; -103.000;11.00000
1070.34;  -31.550;  -52.750;  -47.000;21.20000
1070.89;  -31.000;  -44.650;  -32.000;13.65000
1071.44;  -25.950;  -40.750;  -85.000;14.80000
1071.99;   -8.900;  -19.350;  -83.000;10.45000
1072.54;  -30.550;  -48.250;  -56.000;17.70000
1073.09;  -18.550;  -49.550;  -64.000;31.00000
1073.63;  -21.600;  -49.450;  -46.000;27.85000
1074.18;  -15.300;  -27.800;  -25.000;12.50000
1074.73;  -21.900;  -51.000;   -6.000;29.10000
1075.28;   -7.550;  -28.450;    4.000;20.90000
1075.83;  -18.300;  -46.600;  -22.000;28.30000
1076.38;  -18.250;  -52.400;  -25.000;34.15000
1076.92;  -13.500;  -48.050;  -99.000;34.55000
1077.47;  -10.900;  -33.200;  -39.000;22.30000
1078.02;  -10.300;  -35.250;  -74.000;24.95000
1078.57;  -27.400;  -38.850;  -33.000;11.45000
1079.11;   -8.450;  -53.000;  -35.000;44.55000
1079.66;   -8.350;  -53.450;  -82.000;45.10000
1080.21;   -5.600;  -44.250;  -68.000;38.65000
1080.76;   61.850;  -36.650;  -49.000;98.50000
1081.31;  380.350;  -44.600;    3.000;424.95000
1081.85;  722.950;  -46.450;  -46.000;769.40001
1082.40;  945.500;  -53.600;  -55.000;999.10000
1082.95;  996.100;  -44.350; -140.000;1040.44997
1083.50; 1028.050;  -52.800;   -7.000;1080.85005
1084.04; 1017.150;  -41.900;  -37.000;1059.05003
1084.59;  983.100;  -25.500;  -73.000;1008.59998
1085.14;  876.600;  -48.600;  -56.000;925.19997
1085.69;  607.350;  -54.500;  -84.000;661.84998
1086.23;  296.050;  -31.450;  -48.000;327.49999
1086.78;   97.700;  -54.550;  -63.000;152.25000
1087.33;   22.350;  -32.700; -107.000;55.05000
1087.87;    0.150;  -40.500;  -34.000;40.65000
1088.42;   -4.450;  -31.000;  -58.000;26.55000
1088.97;   -4.300;  -55.400;  -42.000;51.10000
1089.52;   -6.100;  -33.800;  -72.000;27.70000
1090.06;  -23.400;  -45.250;  -46.000;21.85000
1090.61;  -22.600;  -34.700;  -39.000;12.10000
1091.16;  -18.200;  -48.600;  -93.000;30.40000
1091.70;  -24.250;  -54.200;  -69.000;29.95000
1092.25;  -27.550;  -51.400;  -80.000;23.85000
1092.80;  -27.900;  -46.950;  -63.000;19.05000
1093.34;  -24.150;  -53.250;  -62.000;29.10000
1093.89;  -26.250;  -43.000;  -47.000;16.75000
1094.44;  -23.500;  -41.750;  -87.000;18.25000
1094.98;   -9.250;  -34.650;  -96.000;25.40000
1095.53;  -21.350;  -52.150;  -76.000;30.80000
1096.07;  -36.850;  -50.400;  -63.000;13.55000
1096.62;  -25.550;  -58.250;  -16.000;32.70000
1097.17;  -25.650;  -56.700;  -54.000;31.05000
1097.71;  -26.250;  -52.300;  -68.000;26.05000
1098.26;  -45.650;  -45.850;  -72.000; 0.20000
1098.81;  -24.950;  -36.150;  -50.000;11.20000
1099.35;  -41.500;  -51.100;    6.000; 9.60000
1099.90;  -31.650;  -49.450;  -35.000;17.80000
1100.44;  -42.050;  -51.250;  -16.000; 9.20000

