
Integration time [ms]: 100.000
Averaging Nr. [scans]: 20
Smoothing Nr. [pixels]: 0
Data measured with spectrometer [name]: 1701237U1
Wave   ;Sample   ;Dark     ;Reference;Scope Corrected for Dark
[nm]   ;[counts] ;[counts] ;[counts] ;[counts] 

 173.88;   -9.603;   -5.894;  -53.992;-3.70895
 174.48;   -4.752;   -3.546;   42.005;-1.20583
 175.09;    6.049;   -3.599;  -28.998; 9.64784
 175.69;    0.298;    5.554;  -26.995;-5.25566
 176.30;    5.647;    1.806;   46.008; 3.84071
 176.90;   -0.451;   -7.298;  -38.997; 6.84679
 177.51;   -1.601;  -16.099;  -62.998;14.49805
 178.11;   -2.652;    2.304;   -2.994;-4.95660
 178.72;  -10.701;   -8.048;  -27.997;-2.65367
 179.32;   -2.953;    0.155;    7.007;-3.10765
 179.93;    4.447;  -11.195;  -41.994;15.64271
 180.54;    3.949;   14.551;   14.002;-10.60208
 181.14;   -5.903;   -5.944;  -41.992; 0.04092
 181.75;    3.899;    0.102;   -7.998; 3.79740
 182.35;   -0.451;  -18.299;  -18.998;17.84811
 182.96;    2.599;   14.902;  -32.997;-12.30398
 183.56;   -0.204;   -8.944;   -4.992; 8.74030
 184.17;   22.098;    8.803;  -28.995;13.29468
 184.77;    4.799;   -9.999;  -21.998;14.79801
 185.38;   -6.152;   -4.646;   16.005;-1.50595
 185.98;    1.548;    4.454;  -18.995;-2.90625
 186.59;  -10.051;    4.552;  -20.997;-14.60360
 187.19;    1.548;   -4.347;  -32.996; 5.89501
 187.80;    2.197;    5.505;  -32.993;-3.30849
 188.40;   -5.705;   -7.642;  -43.989; 1.93717
 189.01;   16.248;    8.354;   -7.995; 7.89377
 189.61;   -7.502;   -6.047;  -28.996;-1.45402
 190.21;  -13.153;  -10.495;   13.007;-2.65855
 190.82;    3.697;    1.855;   19.007; 1.84241
 191.42;    1.546;   -0.894;   44.008; 2.44032
 192.03;   -5.754;  -12.144;  -25.991; 6.38979
 192.63;   -3.604;    4.757;   -2.990;-8.36149
 193.24;    1.499;    5.502;   32.002;-4.00285
 193.84;    1.295;   -8.391;  -38.988; 9.68621
 194.45;   -3.254;   -8.293;  -45.990; 5.03837
 195.05;   -8.503;   -4.995;   13.007;-3.50763
 195.66;  -13.904;   -5.143;  -35.991;-8.76073
 196.26;  -16.555;   -9.441;  -25.988;-7.11423
 196.87;   -8.905;   -4.342;  -51.989;-4.56253
 197.47;   -0.004;   -3.894;   13.009; 3.88981
 198.07;    1.095;   -8.691;  -25.988; 9.78617
 198.68;   -3.505;   -6.591;  116.013; 3.08535
 199.28;  -10.853;   -2.545;   -2.992;-8.30857
 199.89;   -7.407;    0.261;  -25.984;-7.66822
 200.49;   -1.505;   -7.091;   16.012; 5.58606
 201.10;    0.996;   -1.443;  -18.990; 2.43912
 201.70;   -7.456;    2.109;  -35.987;-9.56499
 202.31;  -15.152;   -4.196;   36.006;-10.95656
 202.91;   -8.103;    7.554;   55.006;-15.65671
 203.51;  -11.404;    3.957;   -5.990;-15.36111
 204.12;   -9.051;   -4.299;   28.001;-4.75155
 204.72;    2.799;    4.452;    0.003;-1.65398
 205.33;   -9.602;   -0.746;  -19.994;-8.85658
 205.93;   -1.753;  -11.895;   -6.993;10.14187
 206.53;  -16.253;   -7.594;  -32.992;-8.65908
 207.14;   -9.603;  -11.245;  -39.992; 1.64126
 207.74;   -6.953;    3.255;  -15.993;-10.20830
 208.35;   -0.154;  -10.894;  -33.991;10.73973
 208.95;   -2.703;  -14.645;   -1.992;11.94138
 209.55;   28.547;   15.955;  -12.992;12.59124
 210.16;  -10.404;   -6.044;  -17.991;-4.36025
 210.76;   -6.754;    4.256;  -33.992;-11.00968
 211.37;  -10.053;  -11.244;   -8.992; 1.19073
 211.97;   -1.352;    3.354;  -76.995;-4.70602
 212.57;   -0.955;   -6.142;  -72.988; 5.18646
 213.18;   -0.954;  -10.043;  -20.990; 9.08912
 213.78;   -6.305;  -11.092;  -56.989; 4.78778
 214.38;   -3.003;    0.605;   -0.993;-3.60851
 214.99;   -4.954;    1.157;  -90.990;-6.11088
 215.59;   -6.105;    6.608;   11.011;-12.71279
 216.20;   -5.705;   -5.491;  -46.988;-0.21404
 216.80;   -3.005;  -10.942;   -6.988; 7.93673
 217.40;   11.996;   -4.694;  -12.991;16.68973
 218.01;  -11.856;   -5.991;   -7.987;-5.86492
 218.61;  -17.205;  -17.792;  -26.989; 0.58799
 219.21;    1.647;   -7.295;   18.008; 8.94132
 219.82;    6.947;    1.956;    8.008; 4.99086
 220.42;   -9.554;    9.006;  -28.992;-18.55954
 221.02;   -8.007;   -9.939;  -45.985; 1.93241
 221.63;  -12.857;   -9.788;   14.017;-3.06914
 222.23;  -23.805;  -13.892;  -26.989;-9.91281
 222.83;  -10.054;   -1.394;   28.008;-8.65960
 223.44;   -9.952;   -6.746;  -24.994;-3.20658
 224.04;    0.193;    2.212;  -16.983;-2.01935
 224.64;  -11.405;   -4.091;    3.013;-7.31440
 225.25;    0.996;   -0.294;  -25.992; 1.29061
 225.85;  -10.203;   -8.095;  -57.993;-2.10744
 226.45;  -18.555;    5.608;  -44.989;-24.16285
 227.06;    0.746;   -0.243;  -20.991; 0.98925
 227.66;    9.697;   13.356;    3.008;-3.65897
 228.26;    3.796;   -3.693;  -18.990; 7.48824
 228.87;   -5.654;   -5.693;   31.010; 0.03803
 229.47;   -7.604;    3.006;   13.009;-10.61017
 230.07;  -10.505;   -0.892;  -28.989;-9.61266
 230.68;  -11.802;   10.504;   -0.995;-22.30581
 231.28;  -13.305;   -1.092;  -37.988;-12.21354
 231.88;   16.595;   23.758;   31.011;-7.16222
 232.48;    0.497;   -2.796;  -21.994; 3.29321
 233.09;    8.997;   -4.545;   -4.993;13.54218
 233.69;    0.096;    4.006;   21.009;-3.90985
 234.29;    1.046;  -13.244;  -20.992;14.29040
 234.90;   -5.155;   -3.142;   -6.988;-2.01327
 235.50;  -15.457;   -7.988;  -22.983;-7.46972
 236.10;  -20.703;   -1.644;  -34.992;-19.05929
 236.70;   -7.705;   -8.842;   14.011; 1.13738
 237.31;   -6.455;   -2.891;  -22.988;-3.56388
 237.91;   -1.055;   -8.692;  -59.988; 7.63663
 238.51;   -4.103;   -2.345;  -45.993;-1.75792
 239.11;  -10.100;   -0.200;   22.001;-9.90073
 239.72;  -17.106;    1.809;   11.013;-18.91513
 240.32;  -20.052;  -12.547;   -5.996;-7.50474
 240.92;   -6.255;    1.858;  -13.989;-8.11268
 241.53;  -16.056;  -13.891;  -14.987;-2.16507
 242.13;   -6.454;    7.357;   23.010;-13.81119
 242.73;   -2.903;    0.356;   -2.992;-3.25914
 243.33;   -1.151;    4.202;   13.003;-5.35304
 243.93;   -7.455;   -2.092;   11.012;-5.36344
 244.54;  -10.654;   -0.994;  -35.991;-9.66017
 245.14;  -16.604;  -19.143;  -60.990; 2.53889
 245.74;   -4.455;    4.308;  -17.989;-8.76297
 246.34;   -9.404;  -14.143;  -53.990; 4.73801
 246.95;   -4.155;  -10.541;    5.012; 6.38598
 247.55;  -16.355;  -10.742;  -25.989;-5.61209
 248.15;  -14.006;   -0.389;   13.015;-13.61694
 248.75;    8.147;    2.105;   15.008; 6.04132
 249.36;   -0.506;   -2.390;   49.015; 1.88321
 249.96;  -10.453;  -11.895;  -35.993; 1.44229
 250.56;    3.545;  -10.692;  -36.989;14.23791
 251.16;  -14.453;    0.256;  -25.992;-14.70931
 251.76;    2.746;  -11.593;  -36.990;14.33843
 252.37;    0.647;   -0.795;  -19.993; 1.44183
 252.97;  -11.804;   -2.093;  -31.990;-9.71111
 253.57;  -10.054;   -4.794;    3.009;-5.26017
 254.17;    7.395;    9.359;  -12.988;-1.96367
 254.77;   -5.153;   -7.495;   -2.993; 2.34162
 255.38;   -8.355;   -3.991;   86.012;-4.36375
 255.98;   -7.751;   -4.098;   12.003;-3.65369
 256.58;   -1.953;  -10.995;   -8.993; 9.04166
 257.18;   -7.804;  -19.843;  -32.990;12.03902
 257.78;  -10.404;   -2.343;  -21.991;-8.06050
 258.38;    4.546;  -27.044;  -46.991;31.58973
 258.99;  -23.653;   -9.796;   30.006;-13.85696
 259.59;  -13.154;  -17.144;  -82.992; 3.99065
 260.19;   -5.205;  -19.592;  -38.989;14.38744
 260.79;   -6.805;   -8.942;  -36.989; 2.13778
 261.39;   -5.855;    7.759;   -7.988;-13.61371
 261.99;  -20.805;  -12.541;  -42.987;-8.26438
 262.60;   -4.805;   -6.842;  -39.988; 2.03642
 263.20;  -18.552;   -1.796;  -21.994;-16.75644
 263.80;  -13.657;  -14.388;   -4.984; 0.73145
 264.40;  -15.054;  -18.843;  -31.990; 3.78818
 265.00;   -5.254;   -6.494;  -19.991; 1.23969
 265.60;  -22.603;   -9.494;  -15.992;-13.10926
 266.20;   -7.203;   -7.845;    5.007; 0.64216
 266.81;   -6.704;   -9.894;   -8.992; 3.19044
 267.41;    3.195;   -4.642;  -35.989; 7.83688
 268.01;   14.347;   -7.995;   14.007;22.34252
 268.61;  -15.255;   -8.292;   -5.988;-6.96356
 269.21;  -19.055;  -27.141;    4.012; 8.08589
 269.81;  -16.952;   -7.496;  -18.995;-9.45625
 270.41;   -1.654;   -2.344;   -5.991; 0.68988
 271.01;   -5.205;    1.358;  -42.989;-6.56239
 271.62;  -11.703;   -7.946;   -6.994;-3.75698
 272.22;   -4.803;   -3.845;   10.007;-0.95805
 272.82;   -4.554;   -5.693;  -19.990; 1.13826
 273.42;    8.696;    0.557;   23.010; 8.13862
 274.02;   -2.754;  -10.744;  -17.992; 7.99057
 274.62;  -14.656;  -18.690;   -9.986; 4.03445
 275.22;  -13.303;  -13.445;  -12.993; 0.14224
 275.82;   -1.655;   -8.392;   28.012; 6.73665
 276.42;   -9.605;   -9.942;   21.011; 0.33696
 277.02;   -5.503;   -8.945;    5.007; 3.44239
 277.63;  -11.255;   -8.392;   -0.989;-2.86235
 278.23;  -19.655;   -9.192;  -18.989;-10.46226
 278.83;  -14.155;   -1.691;  -27.988;-12.46375
 279.43;   -1.005;    2.908;   54.012;-3.91329
 280.03;   -5.352;   -4.697;  -27.996;-0.65409
 280.63;  -15.254;  -13.943;  -12.990;-1.31136
 281.23;   -4.554;   -6.943;  -15.990; 2.38906
 281.83;   -8.406;   -5.790;  -49.987;-2.61528
 282.43;  -11.854;  -14.093;   11.010; 2.23855
 283.03;    0.646;   -4.394;  -23.991; 5.04021
 283.63;  -21.705;  -13.842;   11.011;-7.86218
 284.23;   -2.005;  -12.191;   54.012;10.18608
 284.83;  -20.255;   -6.441;  -56.988;-13.81417
 285.43;   -0.804;    0.306;  -24.991;-1.10991
 286.03;   -9.552;   -7.246;   30.005;-2.30587
 286.63;  -14.655;  -12.692;    9.011;-1.96224
 287.23;   -5.554;  -15.994;  -16.991;10.43992
 287.84;  -19.053;   -3.795;    9.007;-15.25826
 288.44;  -14.003;  -18.594;  -40.992; 4.59086
 289.04;   -5.553;  -16.646;   41.006;11.09315
 289.64;   -5.853;  -16.444;  -19.992;10.59097
 290.24;  -15.058;   -6.387;    5.018;-8.67052
 290.84;  -24.101;  -16.198;  -19.998;-7.90262
 291.44;    0.898;   -1.746;   31.006; 2.64356
 292.04;   -5.552;   -7.247;   14.004; 1.69577
 292.64;   -6.503;   -6.695;  -45.993; 0.19164
 293.24;   -6.602;   -2.696;   -5.995;-3.90618
 293.84;   -9.355;  -11.242;   12.011; 1.88730
 294.44;   -8.255;   -3.242;    9.011;-5.01214
 295.04;  -15.503;  -15.895;  -10.993; 0.39157
 295.64;   -2.802;  -19.347;  -44.996;16.54503
 296.24;  -18.852;   -8.947;  -64.995;-9.90518
 296.84;  -16.403;   -6.046;  -61.994;-10.35685
 297.44;   -8.704;  -17.894;  -41.991; 9.18964
 298.04;  -19.001;   -8.048;   36.002;-10.95252
 298.64;  -14.252;  -14.347;  -12.995; 0.09447
 299.24;   -7.654;  -20.043;   -4.990;12.38828
 299.84;   -7.952;    0.953;  -42.995;-8.90558
 300.44;   -2.053;  -16.494;  -40.992;14.44117
 301.04;  -13.851;   -7.448;  -35.997;-6.40344
 301.64;  -20.255;   -5.592;  -42.989;-14.66243
 302.24;   -4.754;   -6.043;   25.009; 1.28944
 302.83;   -5.701;  -15.548;  -29.997; 9.84711
 303.43;  -12.104;  -14.493;  -18.990; 2.38820
 304.03;  -15.856;  -18.441;  -29.987; 2.58526
 304.63;   -6.003;   -8.495;   -3.993; 2.49237
 305.23;   -4.303;  -14.145;  -43.992; 9.84124
 305.83;  -12.654;   -7.494;  -26.991;-5.15973
 306.43;    1.796;   -4.944;   34.009; 6.74009
 307.03;  -10.555;  -11.892;  -22.989; 1.33797
 307.63;  -13.154;   -4.244;    4.008;-8.90962
 308.23;    3.446;   -8.593;   44.010;12.03849
 308.83;   -5.155;  -16.392;  -47.989;11.23751
 309.43;   -6.056;   -4.190;   29.014;-1.86568
 310.03;  -14.006;  -15.840;   -7.986; 1.83361
 310.63;    4.745;   -5.741;   -5.988;10.48606
 311.23;   -3.856;  -29.990;  -31.985;26.13323
 311.83;    0.896;   -8.194;  -21.991; 9.08992
 312.43;  -13.153;  -23.446;  -37.994;10.29308
 313.02;    6.295;   -3.992;   18.011;10.28696
 313.62;  -14.803;  -17.744;   -0.992; 2.94103
 314.22;   -6.754;   -4.193;  -55.991;-2.56059
 314.82;   -3.905;    2.058;  -68.988;-5.96337
 315.42;  -10.156;   -4.740;  -58.986;-5.41616
 316.02;   -5.455;  -14.391;    5.012; 8.93623
 316.62;    2.993;   -4.088;  -40.984; 7.08155
 317.22;  -10.206;  -15.290;  -27.985; 5.08331
 317.82;   -0.356;   -5.641;  -30.987; 5.28491
 318.42;   25.297;   15.156;  -45.992;10.14094
 319.01;    2.744;    4.060;    0.014;-1.31553
 319.61;  -10.706;  -18.340;    5.015; 7.63323
 320.21;  -14.106;   -7.040;  -21.987;-7.06526
 320.81;    2.892;  -19.537;  -13.981;22.42849
 321.41;   11.296;   -2.844;  -74.991;14.14027
 322.01;  -12.605;  -12.992;   -9.988; 0.38644
 322.61;  -13.657;   -8.138;    2.017;-5.51952
 323.21;   -5.956;  -23.340;   23.014;17.38373
 323.80;   -3.556;  -16.740;  -26.986;13.18443
 324.40;   -6.309;  -16.885;   42.021;10.57621
 325.00;  -11.658;  -11.037;   -6.982;-0.62023
 325.60;   -0.007;  -13.988;  -32.983;13.98021
 326.20;  -10.307;   -7.389;  -26.984;-2.91790
 326.80;   -6.908;  -10.237;   22.018; 3.32946
 327.40;    3.541;  -17.034;   -6.978;20.57516
 327.99;    9.889;   -6.231;  -45.973;16.11946
 328.59;   -5.012;   -3.680;  -14.972;-1.33188
 329.19;   50.787;   32.322;    2.031;18.46481
 329.79;   -4.563;  -10.428;   15.030; 5.86541
 330.39;    9.536;    6.973;    6.032; 2.56340
 330.99;   -3.563;   -9.928;  -12.970; 6.36531
 331.58;   -5.615;  -15.725;  -49.965;10.11028
 332.18;   -5.617;   -5.022;   11.039;-0.59437
 332.78;    4.333;   -6.771;  -16.960;11.10433
 333.38;   20.731;    1.332;  -36.955;19.39911
 333.98;   -1.968;  -14.570;   21.042;12.60229
 334.57;    1.531;   -8.469;  -12.956; 9.99990
 335.17;    1.582;  -15.320;  -60.959;16.90271
 335.77;    1.983;   -2.472;  -44.961; 4.45500
 336.37;   18.131;    0.131;  -18.956;18.00022
 336.97;   16.885;  -12.424;    8.036;29.30896
 337.56;  -15.966;  -23.223;  -52.962; 7.25659
 338.16;    4.134;   -0.974;   -2.964; 5.10856
 338.76;    9.738;   -1.929;    9.029;11.66692
 339.36;   -1.364;  -14.177;   20.032;12.81288
 339.96;    1.637;   -5.078;    8.031; 6.71474
 340.55;    2.087;  -18.828;   17.030;20.91523
 341.15;   -8.113;  -14.128;   -3.969; 6.01462
 341.75;    6.335;   -4.625;   24.035;10.95961
 342.35;    4.535;  -17.525;  -39.964;22.05932
 342.94;    0.581;   -1.868;   18.045; 2.44909
 343.54;   14.534;   -9.023;   12.038;23.55669
 344.14;   12.183;  -10.922;   -1.961;23.10590
 344.74;    6.932;  -24.070;  -33.958;31.00242
 345.33;   10.084;   -5.674;  -25.963;15.75827
 345.93;    2.284;  -14.524;  -28.964;16.80843
 346.53;   12.286;  -14.027;   26.032;26.31296
 347.13;   20.435;  -24.826;  -66.966;45.26101
 347.72;   -3.367;  -20.772;  -60.961;17.40516
 348.32;    6.136;   -6.726;  -80.967;12.86200
 348.92;   15.385;   -1.375;  -50.965;16.75952
 349.52;    7.884;  -26.374;  -18.963;34.25825
 350.11;   12.334;    0.126;  -51.963;12.20762
 350.71;   -3.264;  -11.126;  -16.966; 7.86137
 351.31;   12.636;   -8.577;  -76.968;21.21319
 351.91;    5.236;  -20.577;  -17.967;25.81275
 352.50;   -2.164;   -6.026;  -19.967; 3.86219
 353.10;   14.085;  -14.976;  -41.966;29.06114
 353.70;   -1.912;   -4.879;  -12.971; 2.96699
 354.29;    4.235;  -15.325;   -0.966;19.56063
 354.89;    5.433;  -15.922;   -4.961;21.35563
 355.49;    1.637;  -17.379;  -45.970;19.01590
 356.09;    6.134;  -11.623;    1.038;17.75713
 356.68;   -1.314;  -17.877;  -44.967;16.56244
 357.28;    5.583;   -2.572;  -78.960; 8.15445
 357.88;   11.033;   -8.272;  -16.961;19.30548
 358.47;   -1.115;  -19.025;  -10.965;17.91003
 359.07;   -4.514;   -6.177;  -37.967; 1.66248
 359.67;   -3.714;   -7.526;  -12.966; 3.81166
 360.26;    9.035;  -23.526;  -35.966;32.56110
 360.86;    6.684;  -14.324;  -16.963;21.00791
 361.46;    4.037;  -12.979;    2.030;17.01606
 362.05;    5.584;   -3.924;   -4.963; 9.50810
 362.65;    1.537;  -22.278;  -22.970;23.81554
 363.25;   -2.163;  -12.728;  -27.970;10.56548
 363.84;   -5.363;  -14.729;  -26.970; 9.36594
 364.44;    6.186;    5.323;   13.032; 0.86323
 365.04;    1.086;   -8.177;  -98.967; 9.26273
 365.63;    1.536;  -21.977;  -19.968;23.51380
 366.23;    9.337;  -18.279;  -17.970;27.61615
 366.83;   12.886;  -12.577;  -21.968;25.46386
 367.42;    3.185;   -9.775;  -23.965;12.96003
 368.02;   -1.414;   -1.027;   -9.968;-0.38637
 368.62;   23.535;   -8.475;  -29.964;32.00923
 369.21;   16.735;   -9.375;  -30.965;26.10990
 369.81;   42.335;   14.374;   23.034;27.96080
 370.41;    9.889;  -16.082;   32.026;25.97053
 371.00;    2.283;  -18.922;  -34.961;21.20523
 371.60;   11.634;   -2.123;    1.038;13.75693
 372.19;    5.085;  -10.076;  -11.966;15.16105
 372.79;   12.788;  -14.129;  -68.971;26.91673
 373.39;    7.937;   -6.478;  -29.969;14.41424
 373.98;   12.835;   -2.025;  -21.964;14.85925
 374.58;   22.436;  -15.827;   18.033;38.26258
 375.17;    3.982;    2.130;   -7.959; 1.85277
 375.77;   26.135;    0.776;  -34.964;25.35902
 376.37;    5.834;  -14.624;   61.036;20.45837
 376.96;   28.235;  -14.174;  -18.964;42.40911
 377.56;    9.386;    1.123;  -28.968; 8.26332
 378.15;    5.536;  -22.426;  -33.967;27.96235
 378.75;   12.835;   -6.524;   -5.964;19.35883
 379.35;   11.835;  -16.075;  -23.965;27.90975
 379.94;   28.434;  -11.173;  -15.963;39.60753
 380.54;    7.633;  -21.472;  -28.961;29.10592
 381.13;    4.685;  -17.024;   27.036;21.70875
 381.73;   15.137;  -30.579;   -4.970;45.71579
 382.32;    0.888;   -6.780;    6.027; 7.66860
 382.92;   12.035;  -30.775;   -5.965;42.80959
 383.52;   14.486;  -23.376;  -22.967;37.86233
 384.11;    7.835;  -12.325;  -40.964;20.15942
 384.71;    4.233;   -9.472;  -18.961;13.70571
 385.30;   27.684;  -19.073;  -28.963;46.75718
 385.90;   27.035;   -9.875;  -30.965;36.90990
 386.49;   13.084;  -28.823;  -23.962;41.90644
 387.09;   28.283;   -5.022;  -50.960;33.30485
 387.68;   12.336;  -14.776;  -41.966;27.11137
 388.28;   34.585;  -16.076;  -30.966;50.66099
 388.87;   46.687;    0.121;  -23.971;46.56638
 389.47;   19.334;  -17.173;  -11.962;36.50630
 390.07;   30.435;   -4.475;   -9.965;34.90961
 390.66;   16.786;  -12.627;  -26.967;29.41279
 391.26;   18.884;  -19.173;  -31.963;38.05755
 391.85;   24.935;   -7.024;   -7.964;31.95910
 392.45;   10.534;  -12.474;    8.037;23.00818
 393.04;   13.337;  -25.628;  -42.969;38.96437
 393.64;    4.886;  -23.127;  -49.967;28.01256
 394.23;    9.685;  -10.825;  -59.965;20.50996
 394.83;   24.786;  -22.677;  -11.967;47.46258
 395.42;   23.283;   -5.171;  -21.959;28.45336
 396.02;   34.836;  -16.827;   -9.968;51.66367
 396.61;   28.383;  -18.372;   33.039;46.75525
 397.21;   42.135;   -4.925;  -21.965;47.05969
 397.80; 1272.335; 1210.025;   48.034;62.31079
 398.40;   58.185;   15.225;  -30.965;42.95982
 398.99;   31.335;    3.375;  -70.965;27.96003
 399.59;   23.934;  -24.123;  -13.962;48.05653
 400.18;   28.035;  -25.625;  -78.965;53.66057
 400.78;   30.285;  -19.576;  -59.966;49.86120
 401.37;   23.337;   -5.629;  -69.970;28.96611
 401.96;   21.684;  -14.024;  -21.964;35.70839
 402.56;   24.835;  -17.076;  -70.966;41.91118
 403.15;   28.935;  -12.075;   -7.966;41.01074
 403.75;    9.237;   -6.728;   -1.969;15.96422
 404.34;   14.435;  -29.174;   27.036;43.60885
 404.94;   12.035;  -17.225;  -26.965;29.25975
 405.53;   10.434;  -20.624;  -41.963;31.05785
 406.13;   42.384;  -10.523;   46.038;52.90701
 406.72;   26.737;  -30.878;  -54.970;57.61516
 407.32;   24.885;  -18.525;  -48.965;43.40994
 407.91;   34.835;   -5.526;  -89.966;40.36122
 408.50;   58.638;  -15.330;  -16.972;73.96757
 409.10;   69.635;  -11.176;    1.034;80.81126
 409.69;   96.837;  -13.278;  -17.969;110.11462
 410.29;   79.136;  -28.527;   63.032;107.66371
 410.88;   78.936;   -3.426;   13.034;82.36156
 411.47;   63.687;  -26.778;  -32.969;90.46405
 412.07;   64.836;  -24.777;  -51.968;89.61395
 412.66;   53.986;  -13.927;  -34.968;67.91365
 413.26;   23.387;  -21.829;  -48.970;45.21562
 413.85;   18.237;  -29.429;   -1.971;47.66632
 414.45;   27.036;    3.124;   -4.967;23.91187
 415.04;   26.737;  -28.979;   -7.970;55.71594
 415.63;   26.986;  -11.876;  -29.967;38.86183
 416.23;   21.586;   -6.926;  -34.967;28.51175
 416.82;   38.085;  -10.275;  -28.965;48.36042
 417.41;   37.588;  -11.880;  -70.972;49.46814
 418.01;   45.936;   -0.327;  -45.967;46.26271
 418.60;   21.885;  -24.075;  -56.965;45.96007
 419.20;   37.787;  -17.128;   34.031;54.91416
 419.79;   18.487;  -23.129;  -12.970;41.61627
 420.38;   24.287;  -15.878;  -25.969;40.16483
 420.98;   24.237;  -18.779;  -24.971;43.01638
 421.57;   12.836;   -4.227;    1.032;17.06342
 422.16;   25.438;  -15.130;   21.028;40.56852
 422.76;   22.338;  -13.231;  -40.973;35.56889
 423.35;   15.887;  -28.778;  -72.969;44.66506
 423.94;   33.138;   -1.830;   -4.972;34.96810
 424.54;   21.139;  -12.981;    6.026;34.11973
 425.13;   33.336;   -2.626;  -55.967;35.96225
 425.73;    8.638;   -9.979;  -36.971;18.61690
 426.32;   19.037;   -6.128;    3.031;25.16476
 426.91;   16.389;  -14.231;  -18.974;30.62011
 427.51;   27.489;   -9.532;   -6.975;37.02172
 428.10;   26.738;   -9.130;  -51.973;35.86864
 428.69;   23.488;  -11.730;  -60.972;35.21835
 429.28;   13.936;  -22.227;  -90.967;36.16246
 429.88;   21.387;  -15.279;  -35.970;36.66560
 430.47;   12.489;  -12.682;  -23.975;25.17149
 431.06;   25.288;  -18.180;  -27.972;43.46856
 431.66;   33.389;  -21.781;  -40.974;55.17011
 432.25;  159.738;  -15.130;    0.027;174.86860
 432.84;  326.440;  -17.583;  -33.976;344.02263
 433.44;  385.737;  -17.378;  -33.969;403.11507
 434.03;  379.240;  -30.133;  -37.976;409.37240
 434.62;  372.788;  -13.881;  -22.973;386.66886
 435.22;  374.041;  -15.736;  -43.980;389.77720
 435.81;  350.139;  -11.831;    3.026;361.97022
 436.40;  274.740;  -19.134;  -66.977;293.87387
 436.99;  119.438;  -14.281;    9.027;133.71894
 437.59;   27.389;  -26.631;   18.026;54.02030
 438.18;   27.190;   -9.433;  -23.977;36.62317
 438.77;   11.790;  -21.934;   -8.977;33.72388
 439.36;   17.338;  -18.331;  -41.973;35.66921
 439.96;   25.941;  -21.685;  -77.980;47.62673
 440.55;   18.589;  -14.632;  -18.975;33.22145
 441.14;   27.690;  -14.684;  -79.977;42.37367
 441.73;   26.637;  -15.178;  -46.969;41.81487
 442.33;   21.738;  -22.780;  -88.972;44.51770
 442.92;   39.491;    1.365;    3.021;38.12545
 443.51;   17.389;  -11.432;  -47.975;28.82135
 444.10;   35.689;   -8.431;    6.027;44.11954
 444.70;   20.791;  -25.085;    4.021;45.87577
 445.29;   18.188;  -16.630;  -52.972;34.81780
 445.88;   12.739;  -27.482;  -34.974;40.22040
 446.47;   22.391;   -1.085;   -9.979;23.47583
 447.07;   30.390;  -19.184;    1.022;49.57459
 447.66;   27.689;  -17.181;   28.027;44.86954
 448.25;   24.190;  -23.433;  -18.977;47.62315
 448.84;   16.140;  -14.883;   22.024;31.02235
 449.43;   22.842;   -7.537;   -0.982;30.37933
 450.03;   25.137;   -0.129;   22.030;25.26581
 450.62;   24.438;  -15.881;   10.027;40.31885
 451.21;   30.388;  -15.280;  -37.971;45.66732
 451.80;   31.740;   -8.033;  -30.976;39.77277
 452.39;   20.391;  -14.084;   -8.978;34.47468
 452.99;   12.841;  -30.335;   25.020;43.17680
 453.58;   28.941;  -10.185;  -22.979;39.12602
 454.17;   10.343;  -27.338;  -42.984;37.68143
 454.76;   31.842;  -10.987;   24.018;42.82887
 455.35;   27.441;   -7.135;    5.021;34.57648
 455.95;   30.340;  -25.933;   44.024;56.27286
 456.54;   31.842;  -25.137;  -17.982;56.97904
 457.13;   44.490;   -5.833;   26.023;50.32355
 457.72;   26.993;  -23.038;   -3.983;50.03080
 458.31;   31.842;  -18.887;  -39.982;50.72977
 458.90;   44.840;  -20.434;  -47.978;65.27460
 459.50;   22.840;  -21.283;    9.023;44.12344
 460.09;   23.889;  -23.032;   -6.975;46.92168
 460.68;   16.591;   -6.185;   22.021;22.77558
 461.27;   19.490;  -25.334;  -51.978;44.82462
 461.86;   28.291;  -15.186;  -47.980;43.47705
 462.45;   27.545;  -13.141;  -35.987;40.68558
 463.04;   22.190;  -21.984;  -47.977;44.17401
 463.64;   45.593;    5.911;   -4.985;39.68264
 464.23;   44.691;  -14.434;    6.022;59.12500
 464.82;   30.392;  -16.386;  -23.980;46.77759
 465.41;   38.395;  -25.291;  -17.988;63.68579
 466.00;   28.942;  -14.736;   20.019;43.67772
 466.59;   21.844;  -12.740;   59.014;34.58417
 467.18;   22.543;  -16.239;  -54.984;38.78212
 467.77;   25.642;  -17.937;    6.018;43.57906
 468.37;   30.091;  -15.934;  -56.978;46.02470
 468.96;   28.840;   -7.884;   -9.978;36.72462
 469.55;   27.291;  -13.136;  -10.980;40.42726
 470.14;   17.791;  -13.684;    0.022;31.47493
 470.73;   35.540;  -24.683;  -12.976;60.22246
 471.32;   21.642;  -11.837;  -10.982;33.47893
 471.91;   24.443;  -33.288;    9.017;57.73036
 472.50;   17.989;  -14.132;  -45.975;32.12164
 473.09;   10.344;  -19.740;  -37.986;30.08426
 473.68;   31.290;    3.967;   17.024;27.32281
 474.27;    7.544;  -22.239;  -29.985;29.78300
 474.86;    6.942;  -15.536;   -5.981;22.47799
 475.46;   23.043;  -10.938;  -42.983;33.98088
 476.05;   39.343;   -0.638;    7.017;39.98070
 476.64;   15.293;  -21.589;  -99.984;36.88164
 477.23;   22.092;  -17.987;   13.018;40.07906
 477.82;   21.893;  -20.388;   -4.983;42.28080
 478.41;   40.543;  -10.188;  -21.983;50.73097
 479.00;   29.042;  -18.487;  -18.982;47.52914
 479.59;   41.991;  -15.035;  -39.979;57.02581
 480.18;   41.744;  -17.939;    0.015;59.68290
 480.77;   39.043;   -6.889;  -38.985;45.93264
 481.36;   51.244;  -16.889;  -44.985;68.13279
 481.95;   39.942;  -21.937;   32.019;61.87862
 482.54;   47.440;  -30.484;    4.023;77.92420
 483.13;   63.842;  -15.536;  -31.981;79.37814
 483.72;  159.194;  -19.290;    6.014;178.48403
 484.31; 1503.693;  -11.588;   -4.984;1515.28123
 484.90; 3794.443;  -11.989;  -33.984;3806.43177
 485.49; 4305.395;  -16.842;  -25.988;4322.23673
 486.08; 4346.094;  -24.090;   16.014;4370.18357
 486.67; 4353.294;    2.759;  -60.987;4350.53524
 487.26; 4179.844;  -25.591;  -64.987;4205.43479
 487.85; 3971.143;  -22.088;   -8.984;3993.23153
 488.44; 3419.042;  -28.586;  -24.981;3447.62812
 489.03; 1395.244;   -8.189;  -37.985;1403.43304
 489.62;  155.544;  -23.341;  -14.987;178.88515
 490.21;   68.293;  -21.339;   39.015;89.63250
 490.80;   48.444;  -16.540;    7.013;64.98470
 491.39;   40.993;  -17.389;  -30.985;58.38243
 491.98;   63.244;  -18.690;  -40.986;81.93405
 492.57;   66.645;  -12.242;  -15.989;78.88772
 493.16;   57.392;  -18.137;  -14.982;75.52981
 493.75;   49.543;  -12.288;  -24.983;61.83019
 494.34;   66.243;  -23.638;   16.016;89.88147
 494.93;   47.545;  -40.991;  -32.988;88.53629
 495.52;   36.692;  -27.087;   -1.982;63.77979
 496.11;   39.343;  -25.638;   20.017;64.98050
 496.70;   35.141;  -30.235;  -54.978;65.37533
 497.29;   23.993;  -26.388;  -39.983;50.38099
 497.88;   30.794;  -18.539;  -70.985;49.33269
 498.47;   36.544;  -11.739;   23.015;48.28317
 499.06;   43.692;   -9.487;    0.018;53.17988
 499.64;   19.594;  -29.940;  -69.986;49.53394
 500.23;   28.243;  -29.738;   -1.984;57.98132
 500.82;   28.693;  -20.089;  -51.984;48.78202
 501.41;   32.842;  -10.236;  -16.981;43.07805
 502.00;    7.343;  -22.988;  -21.983;30.33011
 502.59;   33.293;  -10.439;   -6.985;43.73250
 503.18;    8.993;  -22.639;  -56.984;31.63170
 503.77;   14.093;  -34.039;  -41.984;48.13179
 504.36;   37.294;   -4.539;  -24.985;41.83288
 504.95;    6.043;  -30.439;  -60.984;36.48220
 505.54;    6.943;   -8.588;  -55.983;15.53113
 506.12;   26.093;  -20.639;  -36.984;46.73185
 506.71;   23.743;  -11.789;  -52.984;35.53189
 507.30;   23.191;  -23.486;  -40.980;46.67713
 507.89;   17.091;  -23.036;  -26.980;40.12726
 508.48;   16.644;  -28.490;  -53.986;45.13348
 509.07;   12.341;   -2.684;    3.022;15.02510
 509.66;   38.794;   -5.240;  -30.986;44.03399
 510.25;   24.242;  -22.186;  -22.980;46.42759
 510.84;    7.442;  -21.687;   -5.982;29.12998
 511.42;   10.443;  -19.189;  -54.984;29.63164
 512.01;   38.396;  -14.694;  -24.992;53.09048
 512.60;   18.443;  -19.988;  -11.983;38.43038
 513.19;   -1.108;  -30.387;   30.018;29.27981
 513.78;   27.242;  -10.887;   63.018;38.12891
 514.37;   23.244;   -7.990;    6.014;31.23407
 514.95;    6.545;  -22.042;   11.011;28.58705
 515.54;    3.893;  -24.739;  -69.985;28.63264
 516.13;   -1.707;  -32.288;  -12.983;30.58038
 516.72;    8.544;   -8.440;  -56.986;16.98359
 517.31;    9.744;   -8.690;  -58.986;18.43399
 517.90;    5.144;  -30.091;  -20.987;35.23493
 518.48;   16.894;  -15.640;  -34.985;32.53325
 519.07;   17.092;  -18.487;   -4.982;35.57937
 519.66;   17.545;    4.359;   47.012;13.18594
 520.25;   -0.156;  -18.190;  -27.987;18.03470
 520.84;   -9.057;  -17.688;   -2.984; 8.63149
 521.43;    5.095;  -16.991;   14.013;22.08539
 522.01;   25.994;   -2.991;   -4.987;28.98510
 522.60;   15.394;  -15.489;   31.015;30.88285
 523.19;    7.044;  -22.890;  -27.986;29.93375
 523.78;    7.093;  -25.688;  -21.984;32.78130
 524.37;    0.392;  -10.437;   -8.982;10.82900
 524.95;    0.645;  -22.991;  -70.988;23.63621
 525.54;   10.243;  -16.388;  -10.984;26.63116
 526.13;    9.543;  -23.189;  -51.984;32.73227
 526.72;   15.196;   -6.393;   -4.991;21.58931
 527.30;    5.695;  -29.791;  -14.987;35.48548
 527.89;   10.393;  -24.438;  -25.983;34.83090
 528.48;   19.245;  -21.641;   -5.988;40.88610
 529.07;   21.893;  -10.589;  -13.984;32.48172
 529.65;   23.795;   -9.992;  -60.989;33.78742
 530.24;   24.293;   -4.238;    8.016;28.53160
 530.83;   -0.655;  -21.892;  -24.988;21.23679
 531.42;   23.794;   -8.691;    5.013;32.48533
 532.00;   17.244;  -15.590;   17.015;32.83329
 532.59;   11.146;  -23.843;   35.010;34.98897
 533.18;   11.746;  -21.843;  -29.990;33.58872
 533.77;   27.693;  -10.289;  -54.985;37.98266
 534.35;    7.444;  -17.541;  -13.987;24.98501
 534.94;    5.395;  -11.991;  -99.987;17.38543
 535.53;   -0.854;  -20.293;  -42.991;19.43944
 536.12;   -3.007;   -7.688;  -62.983; 4.68080
 536.70;   -8.204;  -27.394;  -21.991;19.19023
 537.29;   10.545;  -25.042;  -68.989;35.58713
 537.88;   -3.005;  -21.392;  -29.989;18.38726
 538.46;   15.694;  -17.790;    0.014;33.48422
 539.05;    3.745;  -19.842;  -47.989;23.58749
 539.64;   17.096;  -17.894;  -74.991;34.98985
 540.23;   24.345;  -16.191;   -8.988;40.53585
 540.81;   26.396;   -1.443;   -6.990;27.83866
 541.40;    5.943;  -20.839;  -49.984;26.78164
 541.99;   -5.655;  -15.391;   -7.988; 9.73585
 542.57;   14.695;  -19.342;  -73.989;34.03721
 543.16;    4.994;  -22.090;  -58.986;27.08359
 543.75;    3.647;  -22.095;  -17.993;25.74160
 544.33;   11.245;  -20.992;  -26.989;32.23701
 544.92;    1.547;   -9.245;   -9.992;10.79128
 545.51;   -1.855;  -17.141;  -68.988;15.28638
 546.09;    6.844;  -24.140;    0.014;30.98392
 546.68;   16.894;   -4.390;  -60.986;21.28449
 547.27;   -3.004;  -16.494;   10.009;13.48977
 547.85;    1.996;  -16.643;  -50.990;18.63845
 548.44;   -2.554;  -26.094;  -40.991;23.54027
 549.03;   17.097;   -3.944;  -23.992;21.04080
 549.61;    6.894;  -19.190;  -10.986;26.08399
 550.20;    1.146;  -15.043;  -14.990;16.18885
 550.78;   11.495;  -18.591;  -79.988;30.08619
 551.37;   -1.652;  -24.396;  -66.995;22.74424
 551.96;   -2.503;  -36.494;  -35.992;33.99120
 552.54;   -8.357;  -22.488;  -19.983;14.13030
 553.13;    1.044;  -25.491;    0.013;26.53480
 553.72;   -3.905;  -23.692;  -33.989;19.78713
 554.30;    3.048;  -13.746;   20.005;16.79390
 554.89;    5.248;  -18.496;   -7.994;23.74354
 555.47;    8.996;  -20.193;  -43.990;29.18868
 556.06;    8.395;  -13.741;    8.013;22.13560
 556.65;    3.196;  -16.793;    1.010;19.98803
 557.23;   -2.005;  -13.342;  -23.989;11.33747
 557.82;   -5.353;  -19.844;  -43.992;14.49074
 558.40;  -11.254;   -9.443;  -29.990;-1.81138
 558.99;  -10.707;  -21.238;  -53.983;10.53067
 559.58;  -10.606;  -24.140;  -25.987;13.53478
 560.16;   -3.457;  -20.438;    2.016;16.98116
 560.75;   -2.306;  -25.490;  -25.986;23.18361
 561.33;    8.446;  -12.493;   27.010;20.93849
 561.92;    0.244;  -25.040;   -2.987;25.28459
 562.50;   13.796;  -26.043;   19.009;39.83952
 563.09;    3.145;   -6.842;  -10.989; 9.98734
 563.68;   -6.204;  -23.143;  -28.990;16.93824
 564.26;    1.295;  -18.991;  -20.988;20.28623
 564.85;    7.245;  -23.742;  -53.989;30.98757
 565.43;   21.295;  -13.791;  -52.988;35.08585
 566.02;    1.995;  -23.392;  -17.988;25.38673
 566.60;   17.246;   -5.894;  -34.991;23.14007
 567.19;   11.995;  -21.441;  -64.988;33.43575
 567.77;   16.447;  -17.696;  -64.994;34.14298
 568.36;   37.997;  -19.695;  -18.993;57.69176
 568.94;   29.196;  -24.093;  -24.991;53.28918
 569.53;   40.146;  -13.293;  -37.990;53.43835
 570.11;   33.748;  -22.246;  -28.994;55.99350
 570.70;   39.546;  -34.593;  -28.991;74.13923
 571.28;   53.193;  -14.239;  -67.984;67.43222
 571.87;   41.998;  -33.196;  -94.994;75.19348
 572.45;   61.197;  -13.194;  -34.992;74.39069
 573.04;   51.194;  -27.890;  -52.986;79.08350
 573.62;   39.046;  -26.843;  -32.991;65.88948
 574.21;   58.746;  -19.443;  -61.990;78.18822
 574.79;   70.243;  -16.688;  -67.984;86.93139
 575.38;   64.496;  -18.843;  -69.991;83.33929
 575.96;   56.647;  -30.746;  -18.994;87.39323
 576.55;   51.247;  -26.194;  -58.992;77.44105
 577.13;   65.747;  -26.445;   -0.994;92.19264
 577.72;   64.596;  -24.194;  -47.991;88.79019
 578.30;   86.745;  -18.842; -108.988;105.58659
 578.89;   70.398;  -31.396;   -1.995;101.79382
 579.47;   80.445;  -19.242;    4.011;99.68703
 580.06;  115.294;  -37.440;  -68.986;152.73428
 580.64;  106.396;  -20.494; -101.991;126.88960
 581.23;  103.846;  -28.793;  -64.991;132.63948
 581.81;  114.545;  -17.142;  -20.989;131.68742
 582.39;   90.196;  -25.594;  -49.991;115.78994
 582.98;   88.294;  -20.640;  -42.986;108.93414
 583.56;   92.544;  -30.889;  -32.985;123.43271
 584.15;   74.395;  -16.742;  -46.988;91.13642
 584.73;   65.944;  -23.639;  -42.985;89.58315
 585.32;   64.295;  -17.992;  -26.988;82.28654
 585.90;   73.794;  -11.340;  -91.985;85.13336
 586.48;   55.796;  -15.343;    9.010;71.13816
 587.07;   55.546;  -25.943;  -11.990;81.48866
 587.65;   70.396;  -12.693;  -23.990;83.08857
 588.24;   78.946;  -29.094;   38.009;108.03982
 588.82;   47.846;  -26.893;  -59.990;74.73900
 589.41;  282.396;  186.406;   14.008;95.99065
 589.99;   63.295;  -11.791;   38.013;75.08562
 590.57;   47.647;  -41.345;  -21.993;88.99254
 591.16;   66.744;  -11.041;  -22.987;77.78505
 591.74;   57.746;   -8.843;   18.009;66.58929
 592.32;   47.897;  -19.244;   15.008;67.14105
 592.91;   52.544;  -21.490;  -28.987;74.03468
 593.49;   64.847;  -34.595;   -8.992;99.44130
 594.08;   57.795;  -28.541;  -55.988;86.33604
 594.66;   60.597;  -15.694;   11.008;76.29090
 595.24;   62.497;  -23.395;   -8.993;85.89164
 595.83;   60.795;  -14.742;   37.011;75.53766
 596.41;   47.698;  -27.947;   -8.995;75.64484
 596.99;   59.047;  -17.045;   20.007;76.09183
 597.58;   65.346;  -25.894;   31.008;91.24048
 598.16;   61.694;  -15.389;  -10.985;77.08313
 598.74;   57.696;  -14.394;  -29.991;72.08983
 599.33;   48.995;  -15.892;  -20.989;64.88694
 599.91;   39.545;  -22.841;  -25.988;62.38600
 600.49;   51.044;   -5.140;  -52.986;56.18451
 601.08;   52.747;  -12.045;   12.008;64.79132
 601.66;   59.747;  -23.244;  -60.992;82.99090
 602.24;   68.197;  -34.895;  -34.993;103.09237
 602.83;   62.097;  -26.395; -104.993;88.49203
 603.41;   69.797;  -30.944;  -78.992;100.74111
 603.99;   75.492;  -20.836;  -15.981;96.32818
 604.58;   53.146;  -22.444;  -44.991;75.58969
 605.16;   50.395;  -19.392;  -21.989;69.78736
 605.74;   46.696;  -35.243;  -54.991;81.93929
 606.33;   43.246;  -29.544;  -13.992;72.79040
 606.91;   29.995;  -22.691;   20.012;52.68579
 607.49;   45.795;  -24.792;    7.011;70.58727
 608.07;   55.647;  -19.495;  -28.993;75.14151
 608.66;   34.246;  -24.594;  -53.992;58.84038
 609.24;   33.897;  -18.444;  -68.992;52.34084
 609.82;   35.896;  -23.043;  -51.990;58.93833
 610.41;   33.146;  -27.843;  -14.990;60.98868
 610.99;   37.946;  -26.944;  -34.991;64.89000
 611.57;   24.748;  -23.146;  -46.994;47.89371
 612.15;   32.196;  -21.493;  -44.990;53.68870
 612.74;   31.548;  -23.446;  -59.995;54.99380
 613.32;   30.296;  -20.743;  -53.990;51.03914
 613.90;   35.846;  -20.344;  -19.992;56.19048
 614.48;   35.645;  -13.192;  -17.989;48.83763
 615.07;   32.744;  -25.340;    5.015;58.08340
 615.65;   39.398;  -29.647;  -55.996;69.04526
 616.23;   18.946;  -31.993;  -70.991;50.93921
 616.81;   14.443;  -27.338;  -25.984;41.78132
 617.40;   17.541;  -35.536;  -48.980;53.07688
 617.98;   41.640;  -20.833;  -59.976;62.47277
 618.56;   45.994;  -31.089;  -85.985;77.08283
 619.14;   15.743;  -12.788;  -45.983;28.53009
 619.72;   16.893;  -39.088;  -78.983;55.98034
 620.31;   29.144;  -20.240;   -6.987;49.38474
 620.89;   32.295;  -15.742;  -41.989;48.03730
 621.47;   14.395;  -25.292;   -6.988;39.68648
 622.05;   26.895;  -45.342;   -8.989;72.23744
 622.63;   16.394;  -29.540;  -27.986;45.93411
 623.22;   15.497;  -30.445;  -47.993;45.94195
 623.80;   30.994;  -16.090;  -34.985;47.08336
 624.38;   28.746;  -15.593;   -9.990;44.33897
 624.96;   16.694;  -22.940;  -10.986;39.63413
 625.54;   -0.505;  -44.691;  -41.987;44.18537
 626.13;    2.997;  -32.394;  -63.992;35.39111
 626.71;   39.945;    4.858;  -19.989;35.08717
 627.29;    2.242;  -18.037;  -18.982;20.27904
 627.87;    3.645;  -34.592;  -15.988;38.23673
 628.45;   30.995;  -29.392;  -16.989;60.38730
 629.03;   31.495;  -17.291;    0.013;48.78545
 629.62;   13.844;  -26.991;  -55.987;40.83497
 630.20;   -0.255;  -29.991;  -27.987;29.73562
 630.78;   14.346;  -25.043;   10.010;39.38847
 631.36;    7.343;  -16.239;  -20.985;23.58262
 631.94;   18.146;  -30.143;   -9.990;48.28904
 632.52;   15.646;  -15.044;    2.008;30.69061
 633.10;   29.694;  -18.639;  -43.985;48.33271
 633.68;   14.344;  -30.540;  -28.986;44.88401
 634.27;   21.044;  -24.591;  -16.987;45.63518
 634.85;    5.544;  -27.990;  -22.985;33.53340
 635.43;   21.642;  -23.687;  -14.981;45.32841
 636.01;   -3.205;  -27.042;  -45.989;23.83734
 636.59;   -7.455;  -28.641;  -14.988;21.18619
 637.17;   18.941;  -28.235;  -62.978;47.17529
 637.75;   21.343;  -29.189;   -9.984;50.53208
 638.33;   11.193;  -25.388;  -23.984;36.58153
 638.91;   14.094;  -19.990;   -2.985;34.08323
 639.50;   18.942;  -35.586;   -1.981;54.52774
 640.08;   -8.206;  -26.840;  -67.986;18.63446
 640.66;    5.544;  -40.790;  -76.986;46.33450
 641.24;   21.994;   -9.840;  -59.986;31.83454
 641.82;   22.344;  -27.340;  -89.987;49.68458
 642.40;   17.044;  -22.490;  -12.987;39.53462
 642.98;    9.044;  -31.790;  -55.987;40.83465
 643.56;   40.994;  -23.440;  -18.987;64.43469
 644.14;   28.494;  -40.340;  -15.987;68.83473
 644.72;   39.844;  -33.240;  -46.987;73.08477
 645.30;   37.594;  -19.391;  -36.987;56.98481
 645.88;   49.994;  -17.691;    4.013;67.68484
 646.46;   57.294;  -27.591;  -29.987;84.88488
 647.04;   66.944;  -28.341;  -33.987;95.28492
 647.62;   85.144;  -24.841;  -57.987;109.98495
 648.20;   99.344;  -26.941;  -30.987;126.28500
 648.78;   95.444;  -20.341;  -57.987;115.78504
 649.36;  114.244;  -23.441;  -40.987;137.68507
 649.94;   96.694;  -30.041;  -84.987;126.73511
 650.52;  104.094;  -22.141;   -4.987;126.23515
 651.11;   96.944;  -27.341;  -37.987;124.28518
 651.69;  147.494;  -26.241;  -12.987;173.73523
 652.27;  163.494;  -23.691;  -24.987;187.18526
 652.85;  170.644;  -19.341;   -8.987;189.98530
 653.43;  268.845;  -30.091;  -38.987;298.93535
 654.01;  609.195;  -28.641;  -54.987;637.83538
 654.59; 7340.745;  -26.791;  -50.987;7367.53551
 655.17;18102.545;  -22.391;  -64.987;18124.93583
 655.74;20400.844;  -30.341;  -52.987;20431.18468
 656.32;21249.494;  -18.991;    4.013;21268.48510
 656.90;21391.244;  -41.141;  -27.987;21432.38512
 657.48;21215.445;  -16.541;  -21.987;21231.98631
 658.06;20770.395;  -34.941;  -26.987;20805.33556
 658.64;18818.844;  -19.041;  -24.987;18837.88480
 659.22; 8009.544;  -33.741;  -31.988;8043.28551
 659.80; 2441.195;  -20.841;    6.012;2462.03568
 660.38; 1874.145;  -25.641;  -50.988;1899.78578
 660.96; 1652.195;  -30.241;   28.012;1682.43585
 661.54; 1612.395;  -32.191;  -24.988;1644.58582
 662.12; 1554.645;  -25.991;   14.012;1580.63597
 662.70; 1040.245;  -32.291;  -26.988;1072.53597
 663.28;  441.195;  -28.791;  -13.988;469.98597
 663.86;  177.595;  -22.491;  -25.988;200.08602
 664.44;  236.245;  -17.991;  -44.988;254.23606
 665.02;  218.795;  -40.141;  -12.988;258.93610
 665.60;   93.145;  -13.091;   10.012;106.23613
 666.18;  101.445;  -22.841;  -66.988;124.28618
 666.75;   93.645;   -7.941;  -70.988;101.58621
 667.33;   57.095;  -22.241;  -46.988;79.33625
 667.91;   80.845;   -4.991;   -2.988;85.83629
 668.49;   54.345;  -18.991;  -50.988;73.33633
 669.07;   40.695;  -21.491;  -73.988;62.18637
 669.65;   20.195;  -24.042;  -43.988;44.23640
 670.23;   22.445;  -22.392;  -65.988;44.83644
 670.81;   22.395;  -35.842;  -57.988;58.23648
 671.39;   12.045;  -21.392;  -35.988;33.43652
 671.97;    4.895;  -33.592;  -42.988;38.48656
 672.54;    9.145;  -19.292;    4.012;28.43659
 673.12;   19.095;  -22.692;    5.012;41.78663
 673.70;   -0.805;  -25.792;  -84.988;24.98667
 674.28;    7.695;  -14.742;  -65.988;22.43671
 674.86;    0.445;  -18.442;  -19.988;18.88675
 675.44;    3.945;  -20.442;  -49.988;24.38678
 676.02;    2.145;  -23.392; -101.988;25.53682
 676.59;    7.945;  -18.592;  -68.989;26.53686
 677.17;  -10.755;  -30.392;  -34.989;19.63690
 677.75;    1.395;  -22.242;  -25.989;23.63694
 678.33;   -6.005;  -38.092;  -36.989;32.08698
 678.91;    0.095;  -37.242;  -70.989;37.33701
 679.49;   -2.305;  -25.092;  -30.989;22.78705
 680.06;  -21.755;  -47.142;  -67.989;25.38709
 680.64;  -11.755;  -26.842;  -44.989;15.08713
 681.22;   -3.305;  -31.242;  -44.989;27.93717
 681.80;    0.245;  -20.542;  -11.989;20.78720
 682.38;    1.045;  -28.142;    6.011;29.18724
 682.96;    6.045;  -21.492;  -75.989;27.53728
 683.53;   -1.405;  -28.042;  -36.989;26.63732
 684.11;  -14.005;  -28.242;   -4.989;14.23736
 684.69;   -8.455;  -31.192;  -67.989;22.73739
 685.27;   -8.905;  -16.942;  -58.989; 8.03743
 685.85;   -5.855;  -30.892;  -57.989;25.03747
 686.42;  -16.355;  -34.392;  -90.989;18.03751
 687.00;  -17.655;  -33.842;  -50.989;16.18755
 687.58;  -18.605;  -22.942;   -1.989; 4.33758
 688.16;  -19.855;  -30.442;  -73.989;10.58762
 688.73;  -13.205;  -31.542;  -60.989;18.33766
 689.31;  -12.505;  -20.942;   -7.989; 8.43770
 689.89;    0.345;  -25.842;  -35.989;26.18774
 690.47;   -3.255;  -20.942;   -0.989;17.68778
 691.04;  -18.805;  -18.992;  -32.989; 0.18781
 691.62;  -16.555;  -16.942;   23.011; 0.38785
 692.20;  -15.155;  -35.442;   -3.989;20.28789
 692.78;  -10.655;  -16.942;  -55.989; 6.28793
 693.35;   -1.705;  -29.692;  -54.989;27.98797
 693.93;  -22.204;  -26.343;   -6.990; 4.13800
 694.51;  -13.454;  -24.493;  -56.990;11.03804
 695.09;  -17.704;  -17.593;   18.010;-0.11192
 695.66;  -18.604;  -35.243;  -43.990;16.63812
 696.24;  -18.954;  -40.593;  -35.990;21.63816
 696.82;  -15.104;  -27.193;  -17.990;12.08819
 697.39;  -20.404;  -33.993;  -40.990;13.58823
 697.97;  -18.254;  -28.693;  -38.990;10.43827
 698.55;  -22.454;  -37.043;   -1.990;14.58831
 699.13;   -9.854;  -32.793;   46.010;22.93835
 699.70;  -26.554;  -50.293;  -72.990;23.73838
 700.28;  -16.404;  -26.143;  -68.990; 9.73842
 700.86;  -26.004;  -33.043;    8.010; 7.03846
 701.43;  -30.304;  -38.293;   29.010; 7.98850
 702.01;  -24.804;  -29.893;  -62.990; 5.08854
 702.59;  -26.654;  -29.493;  -46.990; 2.83858
 703.16;  -30.854;  -28.993;  -48.990;-1.86139
 703.74;  -22.154;  -31.243;  -11.990; 9.08865
 704.32;  -13.104;  -22.093; -103.990; 8.98869
 704.89;  -20.254;  -26.393;   36.010; 6.13873
 705.47;  -21.454;  -29.943;  -35.990; 8.48877
 706.05;   -1.504;  -20.543;  -62.990;19.03880
 706.62;  -32.354;  -39.093;   -9.990; 6.73884
 707.20;  -29.254;  -41.943;  -27.990;12.68888
 707.78;  -33.104;  -32.593;  -27.990;-0.51108
 708.35;  -17.454;  -33.693;   10.010;16.23895
 708.93;  -22.104;  -28.593;  -59.990; 6.48899
 709.51;  -29.354;  -37.493;    7.010; 8.13903
 710.08;  -23.304;  -25.843;  -75.990; 2.53907
 710.66;  -14.354;  -16.693;  -17.990; 2.33911
 711.23;  -20.754;  -36.143;  -84.991;15.38914
 711.81;  -25.804;  -31.093;  -33.991; 5.28918
 712.39;  -12.304;  -34.993;  -34.991;22.68922
 712.96;  -25.104;  -44.493;  -69.991;19.38926
 713.54;  -31.154;  -26.443;  -46.991;-4.71070
 714.11;  -26.104;  -29.793;  -30.991; 3.68934
 714.69;  -21.504;  -29.343;   -2.991; 7.83937
 715.27;  -20.804;  -22.243;  -69.991; 1.43941
 715.84;  -20.854;  -24.693;    9.009; 3.83945
 716.42;  -19.604;  -37.143;   -9.991;17.53949
 716.99;  -15.654;  -34.993;  -57.991;19.33953
 717.57;  -27.154;  -25.093;  -27.991;-2.06043
 718.15;  -14.704;  -33.994;  -56.991;19.28961
 718.72;  -23.754;  -14.044;  -57.991;-9.71036
 719.30;  -35.404;  -36.594;   21.009; 1.18968
 719.87;  -29.654;  -26.494;  -44.991;-3.16028
 720.45;  -21.604;  -50.044;   -5.991;28.43976
 721.02;  -22.054;  -25.094;  -56.991; 3.03979
 721.60;  -29.154;  -23.844;   -4.991;-5.31017
 722.17;  -26.804;  -26.494;  -23.991;-0.31013
 722.75;  -18.354;  -24.544;  -50.991; 6.18991
 723.33;  -21.404;  -27.694;  -50.991; 6.28995
 723.90;  -22.304;  -18.244;  -64.991;-4.06002
 724.48;  -10.654;  -36.144;  -58.991;25.49002
 725.05;  -14.154;  -32.794;  -35.991;18.64006
 725.63;  -16.004;  -16.144;  -25.991; 0.14010
 726.20;  -11.354;  -33.244;  -47.991;21.89014
 726.78;   -8.754;  -35.594;  -64.991;26.84018
 727.35;    4.696;  -13.844;   28.009;18.54021
 727.93;  -22.204;  -20.294;  -75.991;-1.90975
 728.50;   -2.854;  -16.694;  -96.992;13.84029
 729.08;  -10.254;  -34.494;  -51.992;24.24033
 729.65;    1.346;  -21.544;   -4.992;22.89036
 730.23;   -3.754;  -25.094;  -13.992;21.34040
 730.80;  -17.004;  -23.544;  -21.992; 6.54044
 731.38;  -13.054;  -32.944;  -20.992;19.89048
 731.95;   -6.454;  -21.494;  -21.992;15.04052
 732.53;  -19.604;  -19.494;  -44.992;-0.10945
 733.10;  -16.254;  -33.994;  -68.992;17.74059
 733.68;  -20.704;  -26.194;  -34.992; 5.49063
 734.25;  -10.403;  -25.444;  -20.992;15.04067
 734.82;  -31.153;  -30.344;   37.008;-0.80929
 735.40;  -17.103;  -39.544;  -62.992;22.44075
 735.97;   -2.503;  -17.844;  -22.992;15.34078
 736.55;  -12.203;  -21.444;   16.008; 9.24082
 737.12;  -25.253;  -22.994;   -4.992;-2.25914
 737.70;  -28.353;  -37.094;    2.008; 8.74090
 738.27;  -15.653;  -33.394;  -53.992;17.74094
 738.85;   -6.003;  -38.494;  -25.992;32.49097
 739.42;  -28.753;  -35.294;  -35.992; 6.54101
 739.99;  -14.203;  -38.294;  -42.992;24.09105
 740.57;  -21.203;  -29.144;  -32.992; 7.94109
 741.14;  -15.603;  -33.094;  -44.992;17.49113
 741.72;  -34.403;  -27.644;  -32.992;-6.75883
 742.29;  -30.653;  -32.345;  -47.992; 1.69120
 742.87;  -16.253;  -21.595;  -41.992; 5.34124
 743.44;  -25.353;  -43.745;    9.008;18.39128
 744.01;  -21.353;  -36.895;  -32.992;15.54132
 744.59;  -16.703;  -37.595;  -16.992;20.89136
 745.16;   -3.953;  -29.745;    2.008;25.79139
 745.73;  -26.103;  -23.945;  -68.993;-2.15857
 746.31;  -19.603;  -30.295;  -19.993;10.69147
 746.88;   -8.603;  -41.545;  -84.993;32.94151
 747.46;   -4.953;  -24.745;  -34.993;19.79155
 748.03;  -19.303;  -37.245;  -20.993;17.94158
 748.60;  -20.853;  -38.095;    1.007;17.24162
 749.18;  -30.353;  -43.795;  -25.993;13.44166
 749.75;   -9.503;  -35.745;  -14.993;26.24170
 750.32;  -29.953;  -39.845;  -39.993; 9.89174
 750.90;  -31.603;  -25.945;  -30.993;-5.65823
 751.47;    2.147;  -11.295;  -21.993;13.44181
 752.04;  -13.053;  -26.395;   -6.993;13.34185
 752.62;  -27.153;  -44.195;   12.007;17.04189
 753.19;   -0.953;  -24.445; -101.993;23.49193
 753.76;  -23.053;  -43.995;  -47.993;20.94196
 754.34;  -10.853;  -21.245;    1.007;10.39200
 754.91;  -27.453;  -37.795;  -35.993;10.34204
 755.48;   -9.803;  -28.695;    6.007;18.89208
 756.06;  -14.953;  -17.695;  -26.993; 2.74212
 756.63;   -4.553;  -20.945;  -19.993;16.39216
 757.20;  -31.553;  -30.995;  -21.993;-0.55781
 757.78;  -22.153;  -27.695;  -67.993; 5.54223
 758.35;  -11.153;  -35.745;  -52.993;24.59227
 758.92;  -10.553;  -36.495;  -55.993;25.94231
 759.50;  -22.053;  -39.395;   -1.993;17.34234
 760.07;  -19.203;  -26.395;  -46.993; 7.19238
 760.64;  -18.003;  -32.745;  -91.993;14.74242
 761.21;  -15.803;  -40.145;  -18.993;24.34246
 761.79;  -25.203;  -27.345;  -15.993; 2.14250
 762.36;   -4.953;  -30.095;   -6.993;25.14254
 762.93;  -28.503;  -40.145;  -41.994;11.64257
 763.50;  -26.103;  -25.445;    0.006;-0.65739
 764.08;  -14.653;  -44.945;  -63.994;30.29265
 764.65;  -19.953;  -22.945;  -41.994; 2.99269
 765.22;  -21.853;  -35.845;  -69.994;13.99273
 765.79;  -15.753;  -26.145;  -48.994;10.39276
 766.37;  -23.203;  -24.796;  -45.994; 1.59280
 766.94;  -20.853;  -30.346;   26.006; 9.49284
 767.51;  -18.103;  -29.146;  -26.994;11.04288
 768.08;  -19.703;  -18.296;  -26.994;-1.40708
 768.66;   -7.903;  -25.446;    3.006;17.54295
 769.23;  -15.353;  -19.446;  -48.994; 4.09299
 769.80;  -32.753;  -31.496;  -28.994;-1.25697
 770.37;  -16.753;  -27.096;  -93.994;10.34307
 770.94;  -25.403;  -35.996;  -99.994;10.59311
 771.52;  -23.753;  -14.296;  -10.994;-9.45686
 772.09;  -33.403;  -46.196;    5.006;12.79318
 772.66;  -28.103;  -28.846;   17.006; 0.74322
 773.23;  -15.353;  -30.746;  -48.994;15.39326
 773.80;  -22.803;  -31.346;    4.006; 8.54330
 774.38;  -25.802;  -33.546;  -45.994; 7.74333
 774.95;  -16.102;  -24.946;   -9.994; 8.84337
 775.52;  -15.502;  -41.596;  -15.994;26.09341
 776.09;   -0.452;  -28.996;  -16.994;28.54345
 776.66;  -13.402;  -38.646;    6.006;25.24349
 777.24;   -4.202;  -20.896;  -44.994;16.69353
 777.81;    2.948;  -19.196; -102.994;22.14356
 778.38;   -6.852;  -33.696;  -39.994;26.84360
 778.95;  -10.052;  -31.346;  -16.994;21.29364
 779.52;  -16.252;  -20.796;  -44.994; 4.54368
 780.09;    1.448;  -20.796;  -46.995;22.24372
 780.66;  -20.852;  -43.496;  -95.995;22.64375
 781.24;  -18.452;  -34.096;  -37.995;15.64379
 781.81;  -39.302;  -27.996;  -54.995;-11.30617
 782.38;  -17.152;  -41.196;  -62.995;24.04387
 782.95;  -23.902;  -31.646;  -65.995; 7.74391
 783.52;  -34.952;  -34.146;  -63.995;-0.80605
 784.09;  -25.852;  -22.296;  -50.995;-3.55602
 784.66;  -22.752;  -16.596;  -55.995;-6.15598
 785.23;  -31.152;  -34.046;   30.005; 2.89406
 785.80;  -38.102;  -30.446;  -14.995;-7.65590
 786.38;  -22.252;  -27.546;   -9.995; 5.29414
 786.95;  -32.902;  -19.996;  -75.995;-12.90582
 787.52;  -44.602;  -32.496;  -41.995;-12.10579
 788.09;  -21.802;  -39.646;  -12.995;17.84425
 788.66;  -17.902;  -33.746;  -13.995;15.84429
 789.23;  -22.102;  -13.896;  -68.995;-8.20567
 789.80;  -25.852;  -25.596;    0.005;-0.25564
 790.37;  -33.502;  -22.497;  -70.995;-11.00560
 790.94;  -12.902;  -15.647;   21.005; 2.74444
 791.51;  -36.152;  -36.547;    3.005; 0.39448
 792.08;  -31.752;  -43.997;  -62.995;12.24452
 792.65;  -18.102;  -41.797;   -5.995;23.69456
 793.22;  -19.652;  -26.347;   -3.995; 6.69459
 793.80;  -27.702;  -29.597;    6.005; 1.89463
 794.37;  -36.602;  -21.997;  -64.995;-14.60533
 794.94;   -9.702;  -25.297;  -69.995;15.59471
 795.51;  -32.402;  -29.347;   -8.995;-3.05525
 796.08;  -12.652;  -17.747;  -57.995; 5.09478
 796.65;  -32.452;  -26.997;  -48.995;-5.45518
 797.22;  -27.152;  -36.047;  -46.996; 8.89486
 797.79;   -1.252;  -18.297;    9.004;17.04490
 798.36;  -23.352;  -37.947;  -12.996;14.59493
 798.93;  -32.552;  -38.047;  -10.996; 5.49498
 799.50;  -39.252;  -40.147;  -14.996; 0.89501
 800.07;  -19.952;  -26.147;  -39.996; 6.19505
 800.64;  -34.652;  -39.097;   10.004; 4.44509
 801.21;  -29.652;  -43.547;  -74.996;13.89513
 801.78;  -20.002;  -20.397;  -57.996; 0.39516
 802.35;  -33.102;  -44.747;  -59.996;11.64520
 802.92;  -23.902;  -39.247;   12.004;15.34524
 803.49;  -30.152;  -24.547;   17.004;-5.60472
 804.06;  -34.002;  -45.647;  -63.996;11.64532
 804.63;  -33.402;  -27.597;   -4.996;-5.80465
 805.20;  -27.502;  -29.447;  -51.996; 1.94539
 805.77;  -31.452;  -42.597;  -47.996;11.14543
 806.34;  -32.252;  -36.097;  -27.996; 3.84547
 806.91;  -21.252;  -33.197;  -29.996;11.94551
 807.47;  -40.852;  -37.147;   25.004;-3.70445
 808.04;  -15.252;  -30.447;  -21.996;15.19558
 808.61;  -38.752;  -45.447;  -41.996; 6.69562
 809.18;  -42.202;  -35.397;  -25.996;-6.80434
 809.75;  -35.752;  -41.997;  -34.996; 6.24570
 810.32;  -32.252;  -36.347;  -51.996; 4.09574
 810.89;  -24.902;  -36.147;  -12.996;11.24577
 811.46;  -29.552;  -34.497;   27.004; 4.94581
 812.03;  -33.802;  -27.347;  -68.996;-6.45415
 812.60;  -40.552;  -34.097;  -71.996;-6.45411
 813.17;  -32.902;  -46.247;  -55.996;13.34592
 813.74;  -36.952;  -30.097;  -32.996;-6.85404
 814.31;  -32.551;  -27.448;  -66.996;-5.10400
 814.87;  -29.501;  -34.348;  -38.997; 4.84604
 815.44;  -28.551;  -22.998;  -49.997;-5.55392
 816.01;  -17.401;  -16.948;  -43.997;-0.45388
 816.58;  -28.001;  -45.498;   -4.997;17.49615
 817.15;  -29.951;  -27.748;  -15.997;-2.20381
 817.72;  -43.951;  -39.498;  -25.997;-4.45377
 818.29;  -28.001;   -9.048;  -24.997;-18.95373
 818.86;  -29.251;  -25.098;  -63.997;-4.15369
 819.42;  -29.201;  -25.848;  -86.997;-3.35365
 819.99;  -36.801;  -47.548;  -25.997;10.74638
 820.56;  -30.251;  -37.548;  -26.997; 7.29642
 821.13;  -28.801;  -25.148;  -52.997;-3.65354
 821.70;  -29.501;  -32.348;  -31.997; 2.84649
 822.27;  -27.001;  -34.048;  -51.997; 7.04653
 822.84;  -27.851;  -34.398;  -58.997; 6.54657
 823.40;  -28.701;  -40.148;  -49.997;11.44661
 823.97;  -19.851;  -33.798;  -66.997;13.94665
 824.54;  -38.251;  -39.698;  -75.997; 1.44669
 825.11;  -25.601;  -39.748;  -47.997;14.14672
 825.68;  -21.951;  -25.648;  -99.997; 3.69676
 826.24;  -27.601;  -33.048;  -68.997; 5.44680
 826.81;  -40.101;  -32.648;  -41.997;-7.45316
 827.38;  -32.351;  -30.998;  -61.997;-1.35312
 827.95;  -29.001;  -45.698;  -97.997;16.69691
 828.52;  -25.601;  -34.298;  -21.997; 8.69695
 829.08;  -34.501;  -36.648;  -62.997; 2.14699
 829.65;  -42.151;  -26.748;  -42.997;-15.40297
 830.22;  -23.851;  -39.348;  -22.997;15.49707
 830.79;  -40.851;  -24.948;  -40.997;-15.90289
 831.36;  -27.901;  -39.548;  -28.998;11.64714
 831.92;  -35.901;  -18.348;  -43.998;-17.55282
 832.49;  -27.701;  -42.898;   -9.998;15.19722
 833.06;  -28.251;  -34.348;  -37.998; 6.09726
 833.63;  -32.801;  -28.298;   49.002;-4.50270
 834.19;  -29.851;  -34.698;  -18.998; 4.84733
 834.76;  -37.851;  -38.698;    2.002; 0.84737
 835.33;  -27.101;  -30.048;  -26.998; 2.94741
 835.90;  -33.601;  -44.298;  -46.998;10.69745
 836.46;  -33.601;  -26.648;  -17.998;-6.95251
 837.03;  -29.301;  -36.498;  -17.998; 7.19752
 837.60;  -41.551;  -42.498;  -22.998; 0.94756
 838.17;  -26.601;  -39.949;  -17.998;13.34760
 838.73;  -24.501;  -24.149;  -15.998;-0.35236
 839.30;  -33.201;  -34.499;  -42.998; 1.29768
 839.87;  -23.451;  -25.549;  -54.998; 2.09772
 840.43;  -31.801;  -36.549;  -25.998; 4.74775
 841.00;  -27.751;  -32.849;  -84.998; 5.09779
 841.57;  -41.551;  -31.949;  -35.998;-9.60217
 842.14;  -36.001;  -38.449;  -59.998; 2.44786
 842.70;  -26.851;  -28.449;  -71.998; 1.59790
 843.27;  -20.201;  -24.199;  -22.998; 3.99794
 843.84;  -39.651;  -32.799;   -6.998;-6.85202
 844.40;  -26.501;  -30.599;  -17.998; 4.09802
 844.97;  -39.151;  -36.549;  -53.998;-2.60194
 845.54;  -26.901;  -40.299;  -81.998;13.39809
 846.10;  -40.901;  -27.649;   -1.998;-13.25187
 846.67;  -19.601;  -33.199;   -3.998;13.59817
 847.24;  -37.001;  -27.049;  -48.998;-9.95179
 847.80;  -34.751;  -28.649;  -24.998;-6.10175
 848.37;  -35.351;  -36.099;  -68.998; 0.74829
 848.94;  -32.301;  -34.149;  -32.999; 1.84832
 849.50;  -16.301;  -38.349;    4.001;22.04836
 850.07;  -30.101;  -19.899;  -76.999;-10.20160
 850.63;  -27.501;  -32.599;  -48.999; 5.09844
 851.20;  -33.451;  -26.049;  -14.999;-7.40153
 851.77;  -32.951;  -45.099;  -12.999;12.14851
 852.33;  -15.901;  -21.799;  -31.999; 5.89855
 852.90;  -35.101;  -32.899;  -70.999;-2.20141
 853.47;  -15.401;  -13.149;  -14.999;-2.25137
 854.03;  -25.400;  -32.199;  -17.999; 6.79867
 854.60;  -24.350;  -31.899;   -6.999; 7.54871
 855.16;  -24.100;  -32.099;  -75.999; 7.99874
 855.73;  -29.500;  -32.849;  -69.999; 3.34878
 856.30;  -12.650;  -30.749;  -73.999;18.09882
 856.86;  -41.600;  -29.149;  -34.999;-12.45114
 857.43;  -29.250;  -25.649;  -43.999;-3.60110
 857.99;  -38.500;  -32.599;  -87.999;-5.90107
 858.56;  -36.800;  -42.249;  -12.999; 5.44897
 859.12;  -26.600;  -35.649;  -42.999; 9.04901
 859.69;  -31.000;  -38.449;  -61.999; 7.44905
 860.26;  -29.700;  -41.399;  -49.999;11.69909
 860.82;  -45.650;  -38.399;  -31.999;-7.25088
 861.39;  -31.950;  -35.699;  -52.999; 3.74916
 861.95;  -37.450;  -42.200;  -55.999; 4.74920
 862.52;  -37.100;  -24.600;    3.001;-12.50076
 863.08;  -33.500;  -39.850;  -60.999; 6.34928
 863.65;  -30.400;  -32.800;  -69.999; 2.39931
 864.21;  -48.950;  -41.800;  -36.999;-7.15065
 864.78;  -38.050;  -23.900;  -71.999;-14.15061
 865.34;  -12.550;  -16.650;  -53.000; 4.09943
 865.91;  -22.800;  -28.650;   21.000; 5.84947
 866.47;  -44.400;  -43.500;  -51.000;-0.90049
 867.04;  -28.300;  -26.600;  -29.000;-1.70046
 867.61;  -43.100;  -45.450;   -6.000; 2.34958
 868.17;  -32.950;  -36.050;  -81.000; 3.09962
 868.74;  -34.700;  -40.550;   24.000; 5.84966
 869.30;  -32.950;  -32.550;  -58.000;-0.40031
 869.86;  -40.550;  -34.500;  -47.000;-6.05027
 870.43;  -33.900;  -37.650;  -43.000; 3.74977
 870.99;  -44.700;  -40.300;  -27.000;-4.40019
 871.56;  -45.800;  -26.600;  -54.000;-19.20015
 872.12;  -36.300;  -39.550;  -67.000; 3.24989
 872.69;  -43.550;  -32.550;   26.000;-11.00008
 873.25;  -40.150;  -31.950;  -58.000;-8.20004
 873.82;  -31.600;  -38.950;  -74.000; 7.35000
 874.38;  -29.250;  -37.100;  -67.000; 7.85000
 874.95;  -17.900;  -28.500;  -28.000;10.60000
 875.51;  -36.150;  -30.650;  -17.000;-5.50000
 876.08;  -27.600;  -40.700;  -19.000;13.10000
 876.64;  -27.850;  -44.900;  -41.000;17.05000
 877.20;  -42.600;  -37.650;  -72.000;-4.95000
 877.77;  -41.650;  -55.250;  -14.000;13.60000
 878.33;  -34.000;  -28.450;  -15.000;-5.55000
 878.90;  -24.350;  -37.200;  -54.000;12.85000
 879.46;  -26.400;  -28.450;  -57.000; 2.05000
 880.03;  -14.500;  -30.200;  -48.000;15.70000
 880.59;  -35.400;  -21.250;   13.000;-14.15000
 881.15;  -26.100;  -43.550;  -44.000;17.45000
 881.72;  -33.700;  -31.800;  -21.000;-1.90000
 882.28;  -27.600;  -35.150;  -19.000; 7.55000
 882.85;  -41.950;  -37.200;  -46.000;-4.75000
 883.41;  -30.250;  -43.450; -104.000;13.20000
 883.97;    8.300;    0.500;    4.000; 7.80000
 884.54;  -30.500;  -29.500;  -17.000;-1.00000
 885.10;  -30.000;  -29.250;  -40.000;-0.75000
 885.66;  -22.650;  -22.950;  -93.000; 0.30000
 886.23;  -29.350;  -28.700;  -20.000;-0.65000
 886.79;  -22.700;  -34.250;   24.000;11.55000
 887.36;  -31.000;  -32.550;  -63.000; 1.55000
 887.92;  -23.250;  -38.900;   42.000;15.65000
 888.48;  -36.800;  -32.600;  -21.000;-4.20000
 889.05;  -41.650;  -48.600;  -16.000; 6.95000
 889.61;  -28.600;  -19.900;  -12.000;-8.70000
 890.17;  -41.150;  -36.250;  -16.000;-4.90000
 890.74;  -26.900;  -27.650;  -27.000; 0.75000
 891.30;  -26.850;  -43.750;  -23.000;16.90000
 891.86;  -30.500;  -40.600;  -62.000;10.10000
 892.43;  -24.600;  -45.350;  -38.000;20.75000
 892.99;  -35.700;  -38.850; -108.000; 3.15000
 893.55;  -40.900;  -40.300;  -56.000;-0.60000
 894.11;  -47.750;  -26.900;  -32.000;-20.85000
 894.68;  -36.600;  -38.500; -121.000; 1.90000
 895.24;  -37.300;  -28.350;  -11.000;-8.95000
 895.80;  -44.850;  -49.250;  -80.000; 4.40000
 896.37;  -45.150;  -46.450;  -46.000; 1.30000
 896.93;  -34.050;  -32.000;  -86.000;-2.05000
 897.49;  -30.100;  -37.000;  -57.000; 6.90000
 898.05;  -44.650;  -38.550;  -40.000;-6.10000
 898.62;  -21.400;  -29.400;  -40.000; 8.00000
 899.18;  -37.300;  -37.200;  -77.000;-0.10000
 899.74;  -25.200;  -34.300;   -7.000; 9.10000
 900.31;  -31.800;  -39.100;  -59.000; 7.30000
 900.87;  -61.850;  -41.750;  -56.000;-20.10000
 901.43;  -43.550;  -39.850;    2.000;-3.70000
 901.99;  -33.900;  -45.700;  -55.000;11.80000
 902.56;  -37.450;  -33.950;  -48.000;-3.50000
 903.12;  -23.500;  -26.050;  -46.000; 2.55000
 903.68;  -25.950;  -37.350;  -22.000;11.40000
 904.24;  -44.400;  -18.650;  -23.000;-25.75000
 904.80;  -29.200;  -31.900;  -52.000; 2.70000
 905.37;  -42.400;  -23.800;  -30.000;-18.60000
 905.93;  -25.500;  -31.600;  -91.000; 6.10000
 906.49;  -36.800;  -42.750;  -47.000; 5.95000
 907.05;  -39.100;  -39.450;   40.000; 0.35000
 907.61;  -33.950;  -40.350;  -42.000; 6.40000
 908.18;  -27.600;  -31.450;  -57.000; 3.85000
 908.74;  -33.200;  -37.550;   -6.000; 4.35000
 909.30;  -46.950;  -44.150;  -40.000;-2.80000
 909.86;  -44.500;  -42.050;  -48.000;-2.45000
 910.42;  -40.400;  -36.000;  -35.000;-4.40000
 910.99;  -31.600;  -18.900;  -23.000;-12.70000
 911.55;  -43.100;  -35.600;  -41.000;-7.50000
 912.11;  -44.500;  -32.150;   18.000;-12.35000
 912.67;  -37.300;  -40.900;  -46.000; 3.60000
 913.23;  -35.700;  -45.350;   44.000; 9.65000
 913.79;  -40.450;  -49.950;  -12.000; 9.50000
 914.36;  -27.450;  -40.800;   -1.000;13.35000
 914.92;  -34.500;  -24.300;  -97.000;-10.20000
 915.48;  -45.800;  -31.900;  -73.000;-13.90000
 916.04;  -20.250;  -30.950;    0.000;10.70000
 916.60;  -36.600;  -33.300;  -46.000;-3.30000
 917.16;  -37.100;  -45.150;  -43.000; 8.05000
 917.72;  -42.300;  -33.950;  -49.000;-8.35000
 918.28;  -47.300;  -42.550;  -41.000;-4.75000
 918.85;  -41.350;  -31.550;  -34.000;-9.80000
 919.41;  -37.900;  -39.450;  -55.000; 1.55000
 919.97;  -40.000;  -26.150;  -56.000;-13.85000
 920.53;  -51.100;  -47.600;  -71.000;-3.50000
 921.09;  -31.850;  -30.000;  -11.000;-1.85000
 921.65;  -46.700;  -41.500;  -59.000;-5.20000
 922.21;  -29.050;  -34.500;  -56.000; 5.45000
 922.77;  -44.800;  -46.150;  -92.000; 1.35000
 923.33;  -34.600;  -51.350;  -86.000;16.75000
 923.89;  -41.600;  -34.350;  -12.000;-7.25000
 924.45;  -45.850;  -36.650;  -12.000;-9.20000
 925.01;  -31.500;  -33.400;  -64.000; 1.90000
 925.58;  -46.150;  -34.350;  -80.000;-11.80000
 926.14;  -43.150;  -35.400;  -63.000;-7.75000
 926.70;  -37.100;  -48.300;    2.000;11.20000
 927.26;  -45.900;  -31.050;  -28.000;-14.85000
 927.82;  -41.700;  -33.950;  -36.000;-7.75000
 928.38;  -32.500;  -39.050;  -56.000; 6.55000
 928.94;  -40.550;  -32.900;  -70.000;-7.65000
 929.50;  -42.600;  -40.750;  -47.000;-1.85000
 930.06;  -46.800;  -37.300;  -12.000;-9.50000
 930.62;  -45.200;  -47.450;  -58.000; 2.25000
 931.18;  -46.800;  -31.300;  -20.000;-15.50000
 931.74;  -35.700;  -48.400;  -59.000;12.70000
 932.30;  -35.650;  -23.100;  -68.000;-12.55000
 932.86;  -35.650;  -45.150;  -52.000; 9.50000
 933.42;  -35.900;  -30.850;  -49.000;-5.05000
 933.98;  -28.000;  -26.750;  -22.000;-1.25000
 934.54;  -41.100;  -31.800;  -58.000;-9.30000
 935.10;  -46.850;  -47.950;  -30.000; 1.10000
 935.66;  -36.250;  -31.950;  -32.000;-4.30000
 936.22;  -25.650;  -39.050;  -13.000;13.40000
 936.78;  -55.900;  -45.700;  -33.000;-10.20000
 937.34;  -35.700;  -47.650;   29.000;11.95000
 937.90;  -36.800;  -28.100;  -13.000;-8.70000
 938.46;  -41.000;  -45.450;  -50.000; 4.45000
 939.02;  -28.150;  -38.000;  -35.000; 9.85000
 939.58;  -51.550;  -48.100;  -61.000;-3.45000
 940.14;  -37.800;  -45.450;  -34.000; 7.65000
 940.70;  -30.900;  -41.150;  -15.000;10.25000
 941.25;  -24.300;  -50.250; -119.000;25.95000
 941.81;  -38.200;  -41.300;  -30.000; 3.10000
 942.37;  -27.250;  -24.350;  -53.000;-2.90000
 942.93;  -44.450;  -41.550;  -57.000;-2.90000
 943.49;  -48.550;  -35.250;  -22.000;-13.30000
 944.05;  -45.600;  -52.300;  -66.000; 6.70000
 944.61;  -34.500;  -24.650;  -87.000;-9.85000
 945.17;  -44.150;  -47.350;  -41.000; 3.20000
 945.73;  -37.850;  -43.650;   13.000; 5.80000
 946.29;  -40.850;  -38.550;  -59.000;-2.30000
 946.85;  -51.400;  -43.550;  -75.000;-7.85000
 947.40;  -54.650;  -51.800;  -54.000;-2.85000
 947.96;  -38.900;  -32.000;   -3.000;-6.90000
 948.52;  -39.550;  -38.650;  -62.000;-0.90000
 949.08;  -43.900;  -36.750;  -62.000;-7.15000
 949.64;  -29.250;  -31.500;  -54.000; 2.25000
 950.20;  -36.100;  -33.150;  -97.000;-2.95000
 950.76;  -25.600;  -33.650;  -46.000; 8.05000
 951.32;  -43.100;  -28.250;  -17.000;-14.85000
 951.87;  -49.550;  -35.300;  -69.000;-14.25000
 952.43;  -38.350;  -19.000;   -9.000;-19.35000
 952.99;  -37.150;  -36.450;  -25.000;-0.70000
 953.55;  -53.200;  -30.750;  -67.000;-22.45000
 954.11;  -46.600;  -43.650;  -81.000;-2.95000
 954.67;  -37.600;  -37.100;  -23.000;-0.50000
 955.22;  -38.350;  -51.100;  -39.000;12.75000
 955.78;  -28.500;  -26.750;  -53.000;-1.75000
 956.34;  -34.450;  -44.850;  -46.000;10.40000
 956.90;  -41.100;  -37.600;  -67.000;-3.50000
 957.46;  -47.500;  -54.000;  -50.000; 6.50000
 958.01;  -31.500;  -27.350;  -44.000;-4.15000
 958.57;  -42.150;  -33.700;  -57.000;-8.45000
 959.13;  -30.300;  -37.700;  -55.000; 7.40000
 959.69;  -52.400;  -47.750;  -68.000;-4.65000
 960.25;  -30.000;  -36.650;  -41.000; 6.65000
 960.80;  -38.150;  -31.400;  -40.000;-6.75000
 961.36;  -37.900;  -27.850;  -45.000;-10.05000
 961.92;  -47.050;  -45.100;  -84.000;-1.95000
 962.48;  -40.700;  -41.900;  -30.000; 1.20000
 963.03;  -31.600;  -33.300;  -45.000; 1.70000
 963.59;  -37.800;  -34.250;  -14.000;-3.55000
 964.15;  -31.250;  -25.150;  -85.000;-6.10000
 964.71;  -34.000;  -36.750;  -38.000; 2.75000
 965.26;  -40.150;  -41.400;   15.000; 1.25000
 965.82;  -39.100;  -36.150;  -39.000;-2.95000
 966.38;  -48.450;  -43.050;  -33.000;-5.40000
 966.94;  -36.700;  -40.750;  -35.000; 4.05000
 967.49;  -50.550;  -41.350;  -41.000;-9.20000
 968.05;  -41.650;  -46.000;   23.000; 4.35000
 968.61;  -37.950;  -38.950;  -68.000; 1.00000
 969.17;  -29.600;  -38.700;  -41.000; 9.10000
 969.72;  -44.200;  -46.050;  -14.000; 1.85000
 970.28;  -23.800;  -35.000;  -39.000;11.20000
 970.84;  -47.950;  -45.800;  -35.000;-2.15000
 971.39;  -40.450;  -46.300;  -24.000; 5.85000
 971.95;  -49.800;  -49.800;  -69.000; 0.00000
 972.51;  -41.700;  -42.150;   15.000; 0.45000
 973.06;  -38.150;  -28.900;  -54.000;-9.25000
 973.62;  -34.750;  -35.700;  -56.000; 0.95000
 974.18;  -39.650;  -32.350;  -24.000;-7.30000
 974.73;  -43.300;  -48.800;  -43.000; 5.50000
 975.29;  -21.500;  -30.250;  -17.000; 8.75000
 975.85;  -31.000;  -48.450;  -55.000;17.45000
 976.40;  -42.850;  -39.850;  -38.000;-3.00000
 976.96;  -39.750;  -35.250;  -54.000;-4.50000
 977.52;  -33.750;  -35.150;  -42.000; 1.40000
 978.07;  -28.800;  -32.600;  -15.000; 3.80000
 978.63;  -40.250;  -34.400;  -54.000;-5.85000
 979.19;  -30.100;  -34.250;  -75.000; 4.15000
 979.74;  -33.450;  -37.500;  -43.000; 4.05000
 980.30;  -43.250;  -45.550;  -29.000; 2.30000
 980.85;  -31.550;  -48.100;   -2.000;16.55000
 981.41;  -44.100;  -42.650;  -41.000;-1.45000
 981.97;  -51.950;  -46.850;  -62.000;-5.10000
 982.52;  -50.600;  -43.050;  -78.000;-7.55000
 983.08;  -31.950;  -44.200;  -59.000;12.25000
 983.63;  -44.000;  -41.550;    5.000;-2.45000
 984.19;  -35.600;  -40.900;  -67.000; 5.30000
 984.75;  -43.300;  -34.750;  -23.000;-8.55000
 985.30;  -49.800;  -44.300;  -51.000;-5.50000
 985.86;  -32.400;  -37.100;  -16.000; 4.70000
 986.41;  -49.350;  -41.200;  -36.000;-8.15000
 986.97;  -40.500;  -46.400;  -48.000; 5.90000
 987.52;  -45.550;  -47.050; -140.000; 1.50000
 988.08;  -42.400;  -47.400;   -2.000; 5.00000
 988.64;  -43.050;  -55.050;  -36.000;12.00000
 989.19;  -57.500;  -35.800;  -62.000;-21.70000
 989.75;  -17.250;  -31.300;   28.000;14.05000
 990.30;  -47.900;  -41.450;   -4.000;-6.45000
 990.86;  -59.000;  -49.250;  -81.000;-9.75000
 991.41;  -35.700;  -34.600;  -60.000;-1.10000
 991.97;  -35.250;  -50.400;   -9.000;15.15000
 992.52;  -39.150;  -45.150;  -26.000; 6.00000
 993.08;  -41.250;  -40.850;  -28.000;-0.40000
 993.63;  -52.100;  -44.950;  -23.000;-7.15000
 994.19;  -36.000;  -46.400;  -10.000;10.40000
 994.74;  -45.300;  -39.950;  -29.000;-5.35000
 995.30;  -56.950;  -52.950;  -63.000;-4.00000
 995.85;  -56.800;  -38.000;  -12.000;-18.80000
 996.41;  -34.900;  -47.350;  -36.000;12.45000
 996.96;  -36.000;  -42.350;  -53.000; 6.35000
 997.52;  -23.500;  -29.350;  -69.000; 5.85000
 998.07;  -44.150;  -55.000;  -78.000;10.85000
 998.63;  -49.050;  -47.550;  -22.000;-1.50000
 999.18;  -34.650;  -35.100;  -34.000; 0.45000
 999.74;  -31.750;  -40.850;  -53.000; 9.10000
1000.29;  -35.200;  -47.300;  -59.000;12.10000
1000.85;  -50.150;  -34.850;  -57.000;-15.30000
1001.40;  -37.700;  -33.750;  -31.000;-3.95000
1001.96;  -45.750;  -45.500;   -7.000;-0.25000
1002.51;  -47.400;  -31.700;  -61.000;-15.70000
1003.06;  -46.900;  -47.950;  -26.000; 1.05000
1003.62;  -37.600;  -39.300;  -37.000; 1.70000
1004.17;  -36.650;  -48.150;  -40.000;11.50000
1004.73;  -49.400;  -35.500;  -22.000;-13.90000
1005.28;  -42.250;  -31.250;  -21.000;-11.00000
1005.83;  -43.200;  -44.750;    1.000; 1.55000
1006.39;  -58.750;  -51.350;  -41.000;-7.40000
1006.94;  -41.800;  -37.200;  -40.000;-4.60000
1007.50;  -36.650;  -36.400;  -41.000;-0.25000
1008.05;  -35.950;  -40.300;  -79.000; 4.35000
1008.60;  -57.000;  -43.800;  -52.000;-13.20000
1009.16;  -44.900;  -39.000;  -31.000;-5.90000
1009.71;  -49.400;  -38.250;  -64.000;-11.15000
1010.27;  -47.600;  -36.850;  -83.000;-10.75000
1010.82;  -56.050;  -34.900;  -50.000;-21.15000
1011.37;  -24.100;  -32.950;  -46.000; 8.85000
1011.93;  -32.100;  -42.350;  -26.000;10.25000
1012.48;  -22.600;  -29.350;  -44.000; 6.75000
1013.03;  -32.400;  -33.550;  -74.000; 1.15000
1013.59;  -33.000;  -30.800;  -35.000;-2.20000
1014.14;  -43.850;  -45.700;  -17.000; 1.85000
1014.69;  -47.700;  -28.850;  -57.000;-18.85000
1015.25;  -23.900;  -30.300;  -64.000; 6.40000
1015.80;  -33.200;  -40.600;  -39.000; 7.40000
1016.35;  -37.450;  -54.050;  -72.000;16.60000
1016.91;  -35.950;  -30.750;   -5.000;-5.20000
1017.46;  -48.350;  -42.750;  -25.000;-5.60000
1018.01;  -49.700;  -29.900;  -90.000;-19.80000
1018.57;  -47.950;  -37.750; -106.000;-10.20000
1019.12;  -46.900;  -48.450;  -32.000; 1.55000
1019.67;  -37.650;  -37.450;  -31.000;-0.20000
1020.23;  -36.650;  -26.350;  -79.000;-10.30000
1020.78;  -43.600;  -42.200;  -45.000;-1.40000
1021.33;  -35.700;  -36.500;  -87.000; 0.80000
1021.88;  -39.250;  -41.350;  -18.000; 2.10000
1022.44;  -14.050;  -39.050;  -94.000;25.00000
1022.99;  -34.150;  -44.300; -112.000;10.15000
1023.54;  -46.650;  -42.000;  -79.000;-4.65000
1024.09;  -34.100;  -32.500;  -80.000;-1.60000
1024.65;  -36.600;  -39.750;  -35.000; 3.15000
1025.20;  -42.100;  -52.900;  -45.000;10.80000
1025.75;  -50.250;  -48.350;  -28.000;-1.90000
1026.30;  -39.150;  -47.050;  -76.000; 7.90000
1026.86;  -43.950;  -51.500;  -66.000; 7.55000
1027.41;  -34.000;  -41.300;  -38.000; 7.30000
1027.96;  -44.300;  -40.500;  -23.000;-3.80000
1028.51;  -31.850;  -45.500;  -68.000;13.65000
1029.07;  -42.600;  -39.450;  -52.000;-3.15000
1029.62;  -46.750;  -43.450;  -95.000;-3.30000
1030.17;  -35.700;  -40.750;  -67.000; 5.05000
1030.72;  -52.800;  -38.500;  -22.000;-14.30000
1031.27;  -52.900;  -45.500;  -60.000;-7.40000
1031.83;  -45.350;  -45.150;  -52.000;-0.20000
1032.38;  -34.250;  -40.500;  -68.000; 6.25000
1032.93;  -39.800;  -39.150;  -64.000;-0.65000
1033.48;  -36.100;  -27.650;  -49.000;-8.45000
1034.03;  -41.900;  -43.500;    8.000; 1.60000
1034.58;  -35.300;  -20.950;  -46.000;-14.35000
1035.14;  -40.450;  -44.300;  -42.000; 3.85000
1035.69;  -52.750;  -46.850;  -32.000;-5.90000
1036.24;  -47.750;  -44.050;  -43.000;-3.70000
1036.79;  -44.800;  -43.550;  -30.000;-1.25000
1037.34;  -35.450;  -40.500; -111.000; 5.05000
1037.89;  -42.600;  -48.850;  -25.000; 6.25000
1038.45;  -52.650;  -43.500;  -34.000;-9.15000
1039.00;  -49.100;  -42.500;  -34.000;-6.60000
1039.55;  -44.350;  -49.350;  -19.000; 5.00000
1040.10;  -42.400;  -28.750;  -22.000;-13.65000
1040.65;  -44.400;  -35.200;  -19.000;-9.20000
1041.20;  -30.950;  -39.750;  -23.000; 8.80000
1041.75;  -50.550;  -48.350;  -45.000;-2.20000
1042.30;  -51.000;  -54.350;  -26.000; 3.35000
1042.85;  -30.000;  -45.250;  -31.000;15.25000
1043.41;  -25.100;  -31.050;  -70.000; 5.95000
1043.96;  -41.650;  -51.500;  -14.000; 9.85000
1044.51;  -46.400;  -43.500;  -67.000;-2.90000
1045.06;  -29.100;  -50.350;  -53.000;21.25000
1045.61;  -35.100;  -33.600;  -44.000;-1.50000
1046.16;  -40.350;  -41.900;  -57.000; 1.55000
1046.71;  -42.450;  -48.400;  -83.000; 5.95000
1047.26;  -51.250;  -40.950; -102.000;-10.30000
1047.81;  -44.200;  -44.150; -101.000;-0.05000
1048.36;  -56.250;  -56.900;  -92.000; 0.65000
1048.91;   43.700;   50.450;  -61.000;-6.75000
1049.46;  -25.900;  -33.050;  -58.000; 7.15000
1050.01;  -37.600;  -48.800;  -15.000;11.20000
1050.56;  -37.750;  -48.550;  -89.000;10.80000
1051.11;  -35.700;  -35.600;  -12.000;-0.10000
1051.66;  -43.650;  -45.700;  -19.000; 2.05000
1052.21;  -39.300;  -43.650;  -33.000; 4.35000
1052.76;  -30.800;  -54.600;  -36.000;23.80000
1053.31;  -31.750;  -41.600;  -73.000; 9.85000
1053.86;  -38.950;  -51.100;  -78.000;12.15000
1054.41;  -49.250;  -43.550;  -44.000;-5.70000
1054.96;  -41.650;  -45.700; -117.000; 4.05000
1055.51;  -28.800;  -19.500;  -98.000;-9.30000
1056.06;  -41.450;  -46.850;  -69.000; 5.40000
1056.61;  -31.350;  -21.550;  -25.000;-9.80000
1057.16;  -50.000;  -44.800;  -50.000;-5.20000
1057.71;  -44.900;  -41.900;  -59.000;-3.00000
1058.26;  -46.450;  -52.700;  -47.000; 6.25000
1058.81;  -40.100;  -35.850;  -83.000;-4.25000
1059.36;  -52.250;  -56.250;  -79.000; 4.00000
1059.91;  -44.200;  -31.850;  -69.000;-12.35000
1060.46;  -36.600;  -47.600;   30.000;11.00000
1061.01;  -46.500;  -42.900; -110.000;-3.60000
1061.56;  -40.900;  -58.300;  -46.000;17.40000
1062.11;  -32.900;  -30.000;  -66.000;-2.90000
1062.66;  -44.850;  -40.000;  -21.000;-4.85000
1063.21;  -43.550;  -56.250;  -15.000;12.70000
1063.76;  -45.050;  -46.900;  -61.000; 1.85000
1064.31;  -37.800;  -31.500;  -45.000;-6.30000
1064.86;  -48.500;  -58.100;  -17.000; 9.60000
1065.40;  -37.850;  -21.900;  -31.000;-15.95000
1065.95;  -41.050;  -34.450;    2.000;-6.60000
1066.50;  -52.300;  -41.650;  -29.000;-10.65000
1067.05;  -40.300;  -45.800;  -53.000; 5.50000
1067.60;  -39.900;  -38.000;  -53.000;-1.90000
1068.15;  -42.200;  -54.600;  -12.000;12.40000
1068.70;  -47.750;  -50.450;  -41.000; 2.70000
1069.25;  -38.100;  -46.500;  -85.000; 8.40000
1069.79;  -45.300;  -47.050; -103.000; 1.75000
1070.34;  -44.100;  -52.750;  -47.000; 8.65000
1070.89;  -40.550;  -44.650;  -32.000; 4.10000
1071.44;  -36.450;  -40.750;  -85.000; 4.30000
1071.99;  -35.100;  -19.350;  -83.000;-15.75000
1072.54;  -39.700;  -48.250;  -56.000; 8.55000
1073.09;  -44.200;  -49.550;  -64.000; 5.35000
1073.63;  -33.400;  -49.450;  -46.000;16.05000
1074.18;  -20.550;  -27.800;  -25.000; 7.25000
1074.73;  -40.550;  -51.000;   -6.000;10.45000
1075.28;  -30.300;  -28.450;    4.000;-1.85000
1075.83;  -41.850;  -46.600;  -22.000; 4.75000
1076.38;  -31.300;  -52.400;  -25.000;21.10000
1076.92;  -49.550;  -48.050;  -99.000;-1.50000
1077.47;  -29.650;  -33.200;  -39.000; 3.55000
1078.02;  -26.450;  -35.250;  -74.000; 8.80000
1078.57;  -48.550;  -38.850;  -33.000;-9.70000
1079.11;  -37.750;  -53.000;  -35.000;15.25000
1079.66;  -47.200;  -53.450;  -82.000; 6.25000
1080.21;  -30.700;  -44.250;  -68.000;13.55000
1080.76;  -44.900;  -36.650;  -49.000;-8.25000
1081.31;  -33.900;  -44.600;    3.000;10.70000
1081.85;  -36.950;  -46.450;  -46.000; 9.50000
1082.40;  -40.150;  -53.600;  -55.000;13.45000
1082.95;  -30.900;  -44.350; -140.000;13.45000
1083.50;  -42.550;  -52.800;   -7.000;10.25000
1084.04;  -44.850;  -41.900;  -37.000;-2.95000
1084.59;  -44.650;  -25.500;  -73.000;-19.15000
1085.14;  -49.300;  -48.600;  -56.000;-0.70000
1085.69;  -42.600;  -54.500;  -84.000;11.90000
1086.23;  -31.200;  -31.450;  -48.000; 0.25000
1086.78;  -37.950;  -54.550;  -63.000;16.60000
1087.33;  -38.250;  -32.700; -107.000;-5.55000
1087.87;  -46.000;  -40.500;  -34.000;-5.50000
1088.42;  -34.400;  -31.000;  -58.000;-3.40000
1088.97;  -47.850;  -55.400;  -42.000; 7.55000
1089.52;  -39.650;  -33.800;  -72.000;-5.85000
1090.06;  -58.350;  -45.250;  -46.000;-13.10000
1090.61;  -55.150;  -34.700;  -39.000;-20.45000
1091.16;  -53.700;  -48.600;  -93.000;-5.10000
1091.70;  -40.800;  -54.200;  -69.000;13.40000
1092.25;  -50.350;  -51.400;  -80.000; 1.05000
1092.80;  -48.000;  -46.950;  -63.000;-1.05000
1093.34;  -58.300;  -53.250;  -62.000;-5.05000
1093.89;  -43.900;  -43.000;  -47.000;-0.90000
1094.44;  -44.350;  -41.750;  -87.000;-2.60000
1094.98;  -31.750;  -34.650;  -96.000; 2.90000
1095.53;  -33.300;  -52.150;  -76.000;18.85000
1096.07;  -51.550;  -50.400;  -63.000;-1.15000
1096.62;  -50.650;  -58.250;  -16.000; 7.60000
1097.17;  -31.200;  -56.700;  -54.000;25.50000
1097.71;  -54.550;  -52.300;  -68.000;-2.25000
1098.26;  -50.300;  -45.850;  -72.000;-4.45000
1098.81;  -42.350;  -36.150;  -50.000;-6.20000
1099.35;  -43.700;  -51.100;    6.000; 7.40000
1099.90;  -36.900;  -49.450;  -35.000;12.55000
1100.44;  -54.500;  -51.250;  -16.000;-3.25000

