
Integration time [ms]: 100.000
Averaging Nr. [scans]: 20
Smoothing Nr. [pixels]: 0
Data measured with spectrometer [name]: 1701237U1
Wave   ;Sample   ;Dark     ;Reference;Scope Corrected for Dark
[nm]   ;[counts] ;[counts] ;[counts] ;[counts] 

 173.88;  -11.875;   -5.894;  -53.992;-5.98047
 174.48;   -2.096;   -3.546;   42.005; 1.44995
 175.09;   -9.804;   -3.599;  -28.998;-6.20559
 175.69;   -7.592;    5.554;  -26.995;-13.14573
 176.30;    4.717;    1.806;   46.008; 2.91089
 176.90;    3.269;   -7.298;  -38.997;10.56742
 177.51;  -10.299;  -16.099;  -62.998; 5.79980
 178.11;   11.834;    2.304;   -2.994; 9.52998
 178.72;  -13.042;   -8.048;  -27.997;-4.99446
 179.32;    2.458;    0.155;    7.007; 2.30299
 179.93;   -7.583;  -11.195;  -41.994; 3.61217
 180.54;    8.598;   14.551;   14.002;-5.95343
 181.14;  -11.328;   -5.944;  -41.992;-5.38371
 181.75;    3.835;    0.102;   -7.998; 3.73307
 182.35;   -3.847;  -18.299;  -18.998;14.45142
 182.96;    4.450;   14.902;  -32.997;-10.45255
 183.56;   -5.244;   -8.944;   -4.992; 3.70010
 184.17;   17.666;    8.803;  -28.995; 8.86290
 184.77;   -6.750;   -9.999;  -21.998; 3.24872
 185.38;  -11.850;   -4.646;   16.005;-7.20329
 185.98;    0.193;    4.454;  -18.995;-4.26085
 186.59;   -4.941;    4.552;  -20.997;-9.49284
 187.19;    7.125;   -4.347;  -32.996;11.47154
 187.80;   -0.563;    5.505;  -32.993;-6.06860
 188.40;    0.078;   -7.642;  -43.989; 7.71967
 189.01;    2.494;    8.354;   -7.995;-5.86031
 189.61;  -19.451;   -6.047;  -28.996;-13.40363
 190.21;   -8.765;  -10.495;   13.007; 1.72978
 190.82;   -3.241;    1.855;   19.007;-5.09539
 191.42;    9.857;   -0.894;   44.008;10.75064
 192.03;   -4.806;  -12.144;  -25.991; 7.33714
 192.63;   11.261;    4.757;   -2.990; 6.50422
 193.24;    6.578;    5.502;   32.002; 1.07659
 193.84;    0.503;   -8.391;  -38.988; 8.89485
 194.45;  -10.592;   -8.293;  -45.990;-2.29956
 195.05;   13.958;   -4.995;   13.007;18.95353
 195.66;   -0.970;   -5.143;  -35.991; 4.17365
 196.26;   10.342;   -9.441;  -25.988;19.78351
 196.87;    5.735;   -4.342;  -51.989;10.07723
 197.47;    4.794;   -3.894;   13.009; 8.68768
 198.07;   -8.648;   -8.691;  -25.988; 0.04377
 198.68;    4.582;   -6.591;  116.013;11.17272
 199.28;   -8.915;   -2.545;   -2.992;-6.37076
 199.89;    8.242;    0.261;  -25.984; 7.98096
 200.49;   -6.650;   -7.091;   16.012; 0.44107
 201.10;   11.377;   -1.443;  -18.990;12.81987
 201.70;    5.323;    2.109;  -35.987; 3.21408
 202.31;    6.885;   -4.196;   36.006;11.08106
 202.91;   -0.419;    7.554;   55.006;-7.97272
 203.51;   -0.479;    3.957;   -5.990;-4.43607
 204.12;  -15.189;   -4.299;   28.001;-10.88994
 204.72;   -3.800;    4.452;    0.003;-8.25255
 205.33;  -12.815;   -0.746;  -19.994;-12.06948
 205.93;    3.746;  -11.895;   -6.993;15.64058
 206.53;   -3.428;   -7.594;  -32.992; 4.16629
 207.14;   -5.570;  -11.245;  -39.992; 5.67493
 207.74;   -6.309;    3.255;  -15.993;-9.56374
 208.35;   -7.708;  -10.894;  -33.991; 3.18552
 208.95;  -14.716;  -14.645;   -1.992;-0.07184
 209.55;   30.530;   15.955;  -12.992;14.57439
 210.16;  -11.508;   -6.044;  -17.991;-5.46394
 210.76;   -0.143;    4.256;  -33.992;-4.39936
 211.37;  -19.383;  -11.244;   -8.992;-8.13857
 211.97;    0.999;    3.354;  -76.995;-2.35491
 212.57;  -13.040;   -6.142;  -72.988;-6.89868
 213.18;    4.077;  -10.043;  -20.990;14.11987
 213.78;   -4.107;  -11.092;  -56.989; 6.98533
 214.38;    0.486;    0.605;   -0.993;-0.11914
 214.99;   -9.123;    1.157;  -90.990;-10.28013
 215.59;    8.479;    6.608;   11.011; 1.87075
 216.20;  -11.303;   -5.491;  -46.988;-5.81163
 216.80;    8.517;  -10.942;   -6.988;19.45834
 217.40;   -1.108;   -4.694;  -12.991; 3.58552
 218.01;    3.625;   -5.991;   -7.987; 9.61570
 218.61;   -0.802;  -17.792;  -26.989;16.99072
 219.21;    8.432;   -7.295;   18.008;15.72654
 219.82;   -5.380;    1.956;    8.008;-7.33533
 220.42;    2.310;    9.006;  -28.992;-6.69559
 221.02;   -8.342;   -9.939;  -45.985; 1.59715
 221.63;  -14.081;   -9.788;   14.017;-4.29279
 222.23;   -6.822;  -13.892;  -26.989; 7.07021
 222.83;   -8.241;   -1.394;   28.008;-6.84720
 223.44;   -9.315;   -6.746;  -24.994;-2.56948
 224.04;    5.664;    2.212;  -16.983; 3.45181
 224.64;   -3.212;   -4.091;    3.013; 0.87919
 225.25;    6.314;   -0.294;  -25.992; 6.60819
 225.85;  -12.837;   -8.095;  -57.993;-4.74161
 226.45;   -0.973;    5.608;  -44.989;-6.58087
 227.06;   -1.370;   -0.243;  -20.991;-1.12689
 227.66;    6.725;   13.356;    3.008;-6.63101
 228.26;    2.455;   -3.693;  -18.990; 6.14720
 228.87;   -1.951;   -5.693;   31.010; 3.74180
 229.47;    7.545;    3.006;   13.009; 4.53822
 230.07;   -0.868;   -0.892;  -28.989; 0.02399
 230.68;   10.554;   10.504;   -0.995; 0.05049
 231.28;   -0.340;   -1.092;  -37.988; 0.75132
 231.88;   11.693;   23.758;   31.011;-12.06467
 232.48;    5.779;   -2.796;  -21.994; 8.57512
 233.09;   -8.396;   -4.545;   -4.993;-3.85133
 233.69;   -0.248;    4.006;   21.009;-4.25368
 234.29;    7.359;  -13.244;  -20.992;20.60279
 234.90;    5.267;   -3.142;   -6.988; 8.40834
 235.50;   -3.596;   -7.988;  -22.983; 4.39210
 236.10;   -5.383;   -1.644;  -34.992;-3.73911
 236.70;  -20.317;   -8.842;   14.011;-11.47493
 237.31;    0.051;   -2.891;  -22.988; 2.94269
 237.91;   -7.736;   -8.692;  -59.988; 0.95564
 238.51;   -4.349;   -2.345;  -45.993;-2.00402
 239.11;   -5.768;   -0.200;   22.001;-5.56889
 239.72;   -7.430;    1.809;   11.013;-9.23970
 240.32;  -24.219;  -12.547;   -5.996;-11.67198
 240.92;    8.931;    1.858;  -13.989; 7.07345
 241.53;   -7.329;  -13.891;  -14.987; 6.56192
 242.13;   15.119;    7.357;   23.010; 7.76177
 242.73;   -8.130;    0.356;   -2.992;-8.48533
 243.33;    5.774;    4.202;   13.003; 1.57174
 243.93;   -5.638;   -2.092;   11.012;-3.54598
 244.54;   -8.905;   -0.994;  -35.991;-7.91178
 245.14;  -11.579;  -19.143;  -60.990; 7.56393
 245.74;    0.274;    4.308;  -17.989;-4.03410
 246.34;   -2.451;  -14.143;  -53.990;11.69126
 246.95;    0.798;  -10.541;    5.012;11.33891
 247.55;  -20.804;  -10.742;  -25.989;-10.06143
 248.15;   -3.176;   -0.389;   13.015;-2.78612
 248.75;   11.532;    2.105;   15.008; 9.42654
 249.36;   -1.522;   -2.390;   49.015; 0.86766
 249.96;  -17.144;  -11.895;  -35.993;-5.24863
 250.56;    6.146;  -10.692;  -36.989;16.83857
 251.16;  -10.234;    0.256;  -25.992;-10.48965
 251.76;    7.509;  -11.593;  -36.990;19.10206
 252.37;    0.195;   -0.795;  -19.993; 0.98950
 252.97;   -1.079;   -2.093;  -31.990; 1.01393
 253.57;  -13.455;   -4.794;    3.009;-8.66178
 254.17;    8.607;    9.359;  -12.988;-0.75192
 254.77;   -2.061;   -7.495;   -2.993; 5.43410
 255.38;   -1.995;   -3.991;   86.012; 1.99593
 255.98;  -16.293;   -4.098;   12.003;-12.19500
 256.58;   15.240;  -10.995;   -8.993;26.23518
 257.18;   -4.826;  -19.843;  -32.990;15.01717
 257.78;    0.236;   -2.343;  -21.991; 2.57959
 258.38;  -14.658;  -27.044;  -46.991;12.38552
 258.99;   -9.925;   -9.796;   30.006;-0.12920
 259.59;   -8.585;  -17.144;  -82.992; 8.55927
 260.19;   -9.715;  -19.592;  -38.989; 9.87669
 260.79;  -13.657;   -8.942;  -36.989;-4.71467
 261.39;    5.406;    7.759;   -7.988;-2.35300
 261.99;  -12.011;  -12.541;  -42.987; 0.52973
 262.60;    2.409;   -6.842;  -39.988; 9.25024
 263.20;   -7.612;   -1.796;  -21.994;-5.81570
 263.80;   -5.916;  -14.388;   -4.984; 8.47232
 264.40;  -19.047;  -18.843;  -31.990;-0.20442
 265.00;   11.041;   -6.494;  -19.991;17.53444
 265.60;  -23.433;   -9.494;  -15.992;-13.93857
 266.20;   -6.947;   -7.845;    5.007; 0.89813
 266.81;   -9.490;   -9.894;   -8.992; 0.40387
 267.41;  -12.930;   -4.642;  -35.989;-8.28788
 268.01;    0.412;   -7.995;   14.007; 8.40731
 268.61;   -3.541;   -8.292;   -5.988; 4.75078
 269.21;  -21.154;  -27.141;    4.012; 5.98675
 269.81;  -13.507;   -7.496;  -18.995;-6.01084
 270.41;   -7.304;   -2.344;   -5.991;-4.96070
 271.01;   12.139;    1.358;  -42.989;10.78101
 271.62;  -20.475;   -7.946;   -6.994;-12.52974
 272.22;   -2.552;   -3.845;   10.007; 1.29274
 272.82;   -3.595;   -5.693;  -19.990; 2.09774
 273.42;    0.264;    0.557;   23.010;-0.29308
 274.02;   -9.287;  -10.744;  -17.992; 1.45711
 274.62;   -6.141;  -18.690;   -9.986;12.54951
 275.22;  -15.095;  -13.445;  -12.993;-1.64971
 275.82;   -7.785;   -8.392;   28.012; 0.60618
 276.42;  -20.078;   -9.942;   21.011;-10.13572
 277.02;   -3.241;   -8.945;    5.007; 5.70407
 277.63;  -15.360;   -8.392;   -0.989;-6.96791
 278.23;   -3.008;   -9.192;  -18.989; 6.18425
 278.83;    3.355;   -1.691;  -27.988; 5.04593
 279.43;   -5.084;    2.908;   54.012;-7.99220
 280.03;   -2.003;   -4.697;  -27.996; 2.69475
 280.63;  -12.435;  -13.943;  -12.990; 1.50746
 281.23;    1.425;   -6.943;  -15.990; 8.36825
 281.83;  -10.084;   -5.790;  -49.987;-4.29348
 282.43;  -19.438;  -14.093;   11.010;-5.34470
 283.03;    3.254;   -4.394;  -23.991; 7.64794
 283.63;  -12.606;  -13.842;   11.011; 1.23641
 284.23;  -13.950;  -12.191;   54.012;-1.75839
 284.83;  -14.256;   -6.441;  -56.988;-7.81487
 285.43;   -5.399;    0.306;  -24.991;-5.70530
 286.03;   -7.647;   -7.246;   30.005;-0.40113
 286.63;    0.492;  -12.692;    9.011;13.18479
 287.23;  -16.203;  -15.994;  -16.991;-0.20962
 287.84;    0.693;   -3.795;    9.007; 4.48734
 288.44;   -6.730;  -18.594;  -40.992;11.86467
 289.04;  -10.122;  -16.646;   41.006; 6.52350
 289.64;  -11.277;  -16.444;  -19.992; 5.16737
 290.24;   -6.716;   -6.387;    5.018;-0.32841
 290.84;   -1.816;  -16.198;  -19.998;14.38253
 291.44;   -2.562;   -1.746;   31.006;-0.81570
 292.04;  -19.506;   -7.247;   14.004;-12.25903
 292.64;    2.440;   -6.695;  -45.993; 9.13464
 293.24;  -10.905;   -2.696;   -5.995;-8.20923
 293.84;   -0.619;  -11.242;   12.011;10.62291
 294.44;   -2.705;   -3.242;    9.011; 0.53749
 295.04;   -0.062;  -15.895;  -10.993;15.83302
 295.64;  -16.875;  -19.347;  -44.996; 2.47208
 296.24;  -13.680;   -8.947;  -64.995;-4.73332
 296.84;   -6.622;   -6.046;  -61.994;-0.57650
 297.44;  -14.760;  -17.894;  -41.991; 3.13336
 298.04;  -33.113;   -8.048;   36.002;-25.06477
 298.64;  -10.239;  -14.347;  -12.995; 4.10751
 299.24;   -4.344;  -20.043;   -4.990;15.69828
 299.84;   -3.090;    0.953;  -42.995;-4.04357
 300.44;  -18.072;  -16.494;  -40.992;-1.57723
 301.04;   -7.936;   -7.448;  -35.997;-0.48852
 301.64;  -21.062;   -5.592;  -42.989;-15.47007
 302.24;    3.285;   -6.043;   25.009; 9.32797
 302.83;  -24.873;  -15.548;  -29.997;-9.32448
 303.43;   -0.047;  -14.493;  -18.990;14.44612
 304.03;  -12.120;  -18.441;  -29.987; 6.32056
 304.63;  -14.492;   -8.495;   -3.993;-5.99647
 305.23;   -9.070;  -14.145;  -43.992; 5.07438
 305.83;  -15.294;   -7.494;  -26.991;-7.80044
 306.43;  -20.949;   -4.944;   34.009;-16.00530
 307.03;    0.348;  -11.892;  -22.989;12.24018
 307.63;  -11.242;   -4.244;    4.008;-6.99775
 308.23;   11.261;   -8.593;   44.010;19.85368
 308.83;  -19.014;  -16.392;  -47.989;-2.62169
 309.43;  -20.394;   -4.190;   29.014;-16.20373
 310.03;   -3.862;  -15.840;   -7.986;11.97792
 310.63;    8.150;   -5.741;   -5.988;13.89107
 311.23;  -12.071;  -29.990;  -31.985;17.91820
 311.83;   14.947;   -8.194;  -21.991;23.14038
 312.43;    8.326;  -23.446;  -37.994;31.77188
 313.02;   13.122;   -3.992;   18.011;17.11428
 313.62;  -15.525;  -17.744;   -0.992; 2.21899
 314.22;   13.084;   -4.193;  -55.991;17.27743
 314.82;   -3.486;    2.058;  -68.988;-5.54436
 315.42;    7.644;   -4.740;  -58.986;12.38385
 316.02;  -17.646;  -14.391;    5.012;-3.25461
 316.62;   -7.013;   -4.088;  -40.984;-2.92498
 317.22;  -12.169;  -15.290;  -27.985; 3.12036
 317.82;   -4.629;   -5.641;  -30.987; 1.01138
 318.42;   30.522;   15.156;  -45.992;15.36683
 319.01;   -2.740;    4.060;    0.014;-6.79995
 319.61;   -3.671;  -18.340;    5.015;14.66820
 320.21;   -9.933;   -7.040;  -21.987;-2.89294
 320.81;  -12.340;  -19.537;  -13.981; 7.19622
 321.41;    5.656;   -2.844;  -74.991; 8.49956
 322.01;  -24.541;  -12.992;   -9.988;-11.54922
 322.61;  -15.140;   -8.138;    2.017;-7.00251
 323.21;  -12.059;  -23.340;   23.014;11.28116
 323.80;   -4.941;  -16.740;  -26.986;11.79897
 324.40;  -18.898;  -16.885;   42.021;-2.01262
 325.00;  -12.708;  -11.037;   -6.982;-1.67086
 325.60;   -1.747;  -13.988;  -32.983;12.24048
 326.20;   -2.900;   -7.389;  -26.984; 4.48905
 326.80;  -12.466;  -10.237;   22.018;-2.22895
 327.40;   -2.524;  -17.034;   -6.978;14.51040
 327.99;  -11.517;   -6.231;  -45.973;-5.28641
 328.59;  -23.001;   -3.680;  -14.972;-19.32096
 329.19;   41.916;   32.322;    2.031; 9.59377
 329.79;   -6.419;  -10.428;   15.030; 4.00942
 330.39;    1.330;    6.973;    6.032;-5.64240
 330.99;   -1.572;   -9.928;  -12.970; 8.35672
 331.58;  -19.448;  -15.725;  -49.965;-3.72282
 332.18;   -2.965;   -5.022;   11.039; 2.05735
 332.78;   -1.498;   -6.771;  -16.960; 5.27389
 333.38;   -4.629;    1.332;  -36.955;-5.96051
 333.98;   -3.599;  -14.570;   21.042;10.97153
 334.57;   -0.759;   -8.469;  -12.956; 7.71000
 335.17;  -20.288;  -15.320;  -60.959;-4.96767
 335.77;  -11.131;   -2.472;  -44.961;-8.65884
 336.37;   -2.151;    0.131;  -18.956;-2.28190
 336.97;  -19.431;  -12.424;    8.036;-7.00683
 337.56;  -11.391;  -23.223;  -52.962;11.83218
 338.16;   -0.541;   -0.974;   -2.964; 0.43292
 338.76;   -7.981;   -1.929;    9.029;-6.05172
 339.36;    2.467;  -14.177;   20.032;16.64411
 339.96;    0.814;   -5.078;    8.031; 5.89214
 340.55;  -16.574;  -18.828;   17.030; 2.25456
 341.15;   -0.739;  -14.128;   -3.969;13.38890
 341.75;   -8.815;   -4.625;   24.035;-4.19009
 342.35;  -14.672;  -17.525;  -39.964; 2.85235
 342.94;  -10.529;   -1.868;   18.045;-8.66105
 343.54;  -17.088;   -9.023;   12.038;-8.06512
 344.14;  -15.758;  -10.922;   -1.961;-4.83563
 344.74;  -20.645;  -24.070;  -33.958; 3.42477
 345.33;   -6.199;   -5.674;  -25.963;-0.52464
 345.93;  -10.344;  -14.524;  -28.964; 4.17968
 346.53;  -17.181;  -14.027;   26.032;-3.15374
 347.13;  -24.880;  -24.826;  -66.966;-0.05393
 347.72;    1.874;  -20.772;  -60.961;22.64548
 348.32;  -14.255;   -6.726;  -80.967;-7.52856
 348.92;   -7.067;   -1.375;  -50.965;-5.69225
 349.52;  -11.199;  -26.374;  -18.963;15.17482
 350.11;    0.485;    0.126;  -51.963; 0.35863
 350.71;  -26.821;  -11.126;  -16.966;-15.69476
 351.31;   -4.875;   -8.577;  -76.968; 3.70220
 351.91;  -22.436;  -20.577;  -17.967;-1.85913
 352.50;  -20.400;   -6.026;  -19.967;-14.37371
 353.10;  -13.226;  -14.976;  -41.966; 1.74931
 353.70;   -9.529;   -4.879;  -12.971;-4.65010
 354.29;  -25.789;  -15.325;   -0.966;-10.46365
 354.89;    2.335;  -15.922;   -4.961;18.25735
 355.49;  -18.957;  -17.379;  -45.970;-1.57817
 356.09;   -7.127;  -11.623;    1.038; 4.49621
 356.68;  -23.294;  -17.877;  -44.967;-5.41723
 357.28;  -23.294;   -2.572;  -78.960;-20.72287
 357.88;  -15.569;   -8.272;  -16.961;-7.29643
 358.47;   -8.804;  -19.025;  -10.965;10.22070
 359.07;  -13.843;   -6.177;  -37.967;-7.66615
 359.67;  -13.513;   -7.526;  -12.966;-5.98720
 360.26;  -16.977;  -23.526;  -35.966; 6.54823
 360.86;  -11.208;  -14.324;  -16.963; 3.11619
 361.46;   -1.453;  -12.979;    2.030;11.52615
 362.05;   -2.453;   -3.924;   -4.963; 1.47104
 362.65;    8.834;  -22.278;  -22.970;31.11265
 363.25;   82.233;  -12.728;  -27.970;94.96104
 363.84;  173.194;  -14.729;  -26.970;187.92291
 364.44;  255.326;    5.323;   13.032;250.00328
 365.04;  297.264;   -8.177;  -98.967;305.44032
 365.63;  326.740;  -21.977;  -19.968;348.71785
 366.23;  323.799;  -18.279;  -17.970;342.07831
 366.83;  306.042;  -12.577;  -21.968;318.61947
 367.42;  248.296;   -9.775;  -23.965;258.07070
 368.02;  170.736;   -1.027;   -9.968;171.76354
 368.62;   85.326;   -8.475;  -29.964;93.80019
 369.21;   55.793;   -9.375;  -30.965;65.16746
 369.81;   22.665;   14.374;   23.034; 8.29067
 370.41;   -7.640;  -16.082;   32.026; 8.44111
 371.00;   -9.975;  -18.922;  -34.961; 8.94710
 371.60;   -4.182;   -2.123;    1.038;-2.05918
 372.19;  -15.079;  -10.076;  -11.966;-5.00285
 372.79;  -10.686;  -14.129;  -68.971; 3.44342
 373.39;  -11.848;   -6.478;  -29.969;-5.37081
 373.98;   -7.424;   -2.025;  -21.964;-5.39927
 374.58;  -14.740;  -15.827;   18.033; 1.08655
 375.17;   -4.637;    2.130;   -7.959;-6.76605
 375.77;  -19.130;    0.776;  -34.964;-19.90521
 376.37;   -9.996;  -14.624;   61.036; 4.62806
 376.96;   -9.827;  -14.174;  -18.964; 4.34695
 377.56;   -9.722;    1.123;  -28.968;-10.84456
 378.15;  -30.896;  -22.426;  -33.967;-8.46939
 378.75;    4.216;   -6.524;   -5.964;10.73993
 379.35;  -11.861;  -16.075;  -23.965; 4.21368
 379.94;   -9.767;  -11.173;  -15.963; 1.40647
 380.54;  -24.808;  -21.472;  -28.961;-3.33509
 381.13;  -16.986;  -17.024;   27.036; 0.03778
 381.73;  -30.909;  -30.579;   -4.970;-0.33087
 382.32;  -16.539;   -6.780;    6.027;-9.75854
 382.92;  -18.965;  -30.775;   -5.965;11.80936
 383.52;  -11.846;  -23.376;  -22.967;11.53007
 384.11;  -15.920;  -12.325;  -40.964;-3.59495
 384.71;  -11.513;   -9.472;  -18.961;-2.04049
 385.30;  -11.526;  -19.073;  -28.963; 7.54729
 385.90;    2.243;   -9.875;  -30.965;12.11746
 386.49;  -10.294;  -28.823;  -23.962;18.52840
 387.09;   15.216;   -5.022;  -50.960;20.23738
 387.68;  -15.271;  -14.776;  -41.966;-0.49476
 388.28;  -14.330;  -16.076;  -30.966; 1.74553
 388.87;   20.405;    0.121;  -23.971;20.28424
 389.47;   -6.998;  -17.173;  -11.962;10.17462
 390.07;  -10.515;   -4.475;   -9.965;-6.04010
 390.66;  -13.485;  -12.627;  -26.967;-0.85805
 391.26;  -10.216;  -19.173;  -31.963; 8.95701
 391.85;    5.973;   -7.024;   -7.964;12.99695
 392.45;   -2.851;  -12.474;    8.037; 9.62320
 393.04;   -6.195;  -25.628;  -42.969;19.43243
 393.64;  -23.441;  -23.127;  -49.967;-0.31399
 394.23;  -11.456;  -10.825;  -59.965;-0.63092
 394.83;  -17.340;  -22.677;  -11.967; 5.33655
 395.42;   -5.472;   -5.171;  -21.959;-0.30094
 396.02;  -14.163;  -16.827;   -9.968; 2.66462
 396.61;  -15.024;  -18.372;   33.039; 3.34764
 397.21;    3.187;   -4.925;  -21.965; 8.11206
 397.80; 1356.214; 1210.025;   48.034;146.18909
 398.40;    9.490;   15.225;  -30.965;-5.73470
 398.99;  -12.104;    3.375;  -70.965;-15.47930
 399.59;  -17.642;  -24.123;  -13.962; 6.48056
 400.18;   -9.741;  -25.625;  -78.965;15.88473
 400.78;  -21.275;  -19.576;  -59.966;-1.69908
 401.37;  -13.852;   -5.629;  -69.970;-8.22277
 401.96;  -13.895;  -14.024;  -21.964; 0.12860
 402.56;   34.075;  -17.076;  -70.966;51.15039
 403.15;  155.614;  -12.075;   -7.966;167.68905
 403.75;  269.251;   -6.728;   -1.969;275.97864
 404.34;  269.066;  -29.174;   27.036;298.24048
 404.94;  275.639;  -17.225;  -26.965;292.86367
 405.53;  258.441;  -20.624;  -41.963;279.06457
 406.13;  283.720;  -10.523;   46.038;294.24298
 406.72;  247.675;  -30.878;  -54.970;278.55294
 407.32;  161.494;  -18.525;  -48.965;180.01854
 407.91;   41.176;   -5.526;  -89.966;46.70146
 408.50;    7.335;  -15.330;  -16.972;22.66501
 409.10;    2.377;  -11.176;    1.034;13.55254
 409.69;   17.161;  -13.278;  -17.969;30.43890
 410.29;   -7.062;  -28.527;   63.032;21.46570
 410.88;   -3.366;   -3.426;   13.034; 0.06010
 411.47;  -16.253;  -26.778;  -32.969;10.52433
 412.07;   -9.756;  -24.777;  -51.968;15.02163
 412.66;  -19.513;  -13.927;  -34.968;-5.58592
 413.26;   -8.064;  -21.829;  -48.970;13.76481
 413.85;  -19.996;  -29.429;   -1.971; 9.43262
 414.45;   26.742;    3.124;   -4.967;23.61820
 415.04;   -6.806;  -28.979;   -7.970;22.17291
 415.63;   14.341;  -11.876;  -29.967;26.21712
 416.23;    0.689;   -6.926;  -34.967; 7.61496
 416.82;   16.356;  -10.275;  -28.965;26.63095
 417.41;   15.299;  -11.880;  -70.972;27.17958
 418.01;   27.763;   -0.327;  -45.967;28.08979
 418.60;   36.297;  -24.075;  -56.965;60.37178
 419.20;   17.649;  -17.128;   34.031;34.77703
 419.79;   12.803;  -23.129;  -12.970;35.93155
 420.38;   26.766;  -15.878;  -25.969;42.64430
 420.98;   18.155;  -18.779;  -24.971;36.93424
 421.57;   13.431;   -4.227;    1.032;17.65814
 422.16;    0.709;  -15.130;   21.028;15.83930
 422.76;    1.468;  -13.231;  -40.973;14.69901
 423.35;  -13.228;  -28.778;  -72.969;15.55024
 423.94;   13.898;   -1.830;   -4.972;15.72850
 424.54;   -0.310;  -12.981;    6.026;12.67060
 425.13;   19.902;   -2.626;  -55.967;22.52791
 425.73;   -0.382;   -9.979;  -36.971; 9.59774
 426.32;   14.415;   -6.128;    3.031;20.54268
 426.91;   -3.901;  -14.231;  -18.974;10.33032
 427.51;   20.840;   -9.532;   -6.975;30.37188
 428.10;    5.912;   -9.130;  -51.973;15.04254
 428.69;   11.305;  -11.730;  -60.972;23.03498
 429.28;    2.857;  -22.227;  -90.967;25.08331
 429.88;   16.286;  -15.279;  -35.970;31.56427
 430.47;   -8.566;  -12.682;  -23.975; 4.11594
 431.06;   -0.290;  -18.180;  -27.972;17.89038
 431.66;    3.649;  -21.781;  -40.974;25.43032
 432.25;    4.711;  -15.130;    0.027;19.84146
 432.84;   22.013;  -17.583;  -33.976;39.59563
 433.44;   51.922;  -17.378;  -33.969;69.30024
 434.03;  378.206;  -30.133;  -37.976;408.33914
 434.62;  893.267;  -13.881;  -22.973;907.14793
 435.22; 1048.528;  -15.736;  -43.980;1064.26335
 435.81; 1091.952;  -11.831;    3.026;1103.78355
 436.40; 1033.393;  -19.134;  -66.977;1052.52697
 436.99;  995.570;  -14.281;    9.027;1009.85010
 437.59;  943.304;  -26.631;   18.026;969.93515
 438.18;  821.976;   -9.433;  -23.977;831.40912
 438.77;  301.844;  -21.934;   -8.977;323.77749
 439.36;   32.026;  -18.331;  -41.973;50.35711
 439.96;    2.465;  -21.685;  -77.980;24.15088
 440.55;    9.233;  -14.632;  -18.975;23.86486
 441.14;   -9.311;  -14.684;  -79.977; 5.37208
 441.73;    5.517;  -15.178;  -46.969;20.69538
 442.33;  -10.712;  -22.780;  -88.972;12.06825
 442.92;   -3.117;    1.365;    3.021;-4.48205
 443.51;  -15.720;  -11.432;  -47.975;-4.28784
 444.10;    5.885;   -8.431;    6.027;14.31575
 444.70;  -19.609;  -25.085;    4.021; 5.47605
 445.29;  -13.609;  -16.630;  -52.972; 3.02095
 445.88;  -20.494;  -27.482;  -34.974; 6.98787
 446.47;  -10.557;   -1.085;   -9.979;-9.47233
 447.07;  -18.288;  -19.184;    1.022; 0.89582
 447.66;  -20.465;  -17.181;   28.027;-3.28425
 448.25;    0.375;  -23.433;  -18.977;23.80858
 448.84;  -11.045;  -14.883;   22.024; 3.83807
 449.43;  -20.869;   -7.537;   -0.982;-13.33219
 450.03;   -3.559;   -0.129;   22.030;-3.43033
 450.62;   -9.583;  -15.881;   10.027; 6.29793
 451.21;    1.029;  -15.280;  -37.971;16.30853
 451.80;    0.016;   -8.033;  -30.976; 8.04887
 452.39;    5.064;  -14.084;   -8.978;19.14798
 452.99;  -16.133;  -30.335;   25.020;14.20250
 453.58;   -2.702;  -10.185;  -22.979; 7.48253
 454.17;  -19.967;  -27.338;  -42.984; 7.37178
 454.76;   -5.131;  -10.987;   24.018; 5.85593
 455.35;   -5.091;   -7.135;    5.021; 2.04440
 455.95;   -5.382;  -25.933;   44.024;20.55103
 456.54;   -5.377;  -25.137;  -17.982;19.76025
 457.13;   10.935;   -5.833;   26.023;16.76884
 457.72;  -18.432;  -23.038;   -3.983; 4.60559
 458.31;  -20.058;  -18.887;  -39.982;-1.17086
 458.90;   -4.988;  -20.434;  -47.978;15.44583
 459.50;  -10.767;  -21.283;    9.023;10.51614
 460.09;  -21.512;  -23.032;   -6.975; 1.52080
 460.68;   -9.714;   -6.185;   22.021;-3.52881
 461.27;  -18.388;  -25.334;  -51.978; 6.94637
 461.86;   -8.027;  -15.186;  -47.980; 7.15898
 462.45;  -14.862;  -13.141;  -35.987;-1.72135
 463.04;  -11.953;  -21.984;  -47.977;10.03071
 463.64;   -3.236;    5.911;   -4.985;-9.14691
 464.23;   -7.778;  -14.434;    6.022; 6.65608
 464.82;  -12.913;  -16.386;  -23.980; 3.47301
 465.41;   -1.207;  -25.291;  -17.988;24.08405
 466.00;  -24.210;  -14.736;   20.019;-9.47375
 466.59;  -20.848;  -12.740;   59.014;-8.10751
 467.18;  -12.699;  -16.239;  -54.984; 3.53959
 467.77;   -3.326;  -17.937;    6.018;14.61079
 468.37;  -18.486;  -15.934;  -56.978;-2.55148
 468.96;  -15.288;   -7.884;   -9.978;-7.40364
 469.55;   -5.871;  -13.136;  -10.980; 7.26437
 470.14;  -13.980;  -13.684;    0.022;-0.29554
 470.73;    1.308;  -24.683;  -12.976;25.99077
 471.32;    5.321;  -11.837;  -10.982;17.15755
 471.91;  -10.193;  -33.288;    9.017;23.09425
 472.50;  -13.213;  -14.132;  -45.975; 0.91972
 473.09;  -12.796;  -19.740;  -37.986; 6.94465
 473.68;    2.917;    3.967;   17.024;-1.05005
 474.27;  -15.027;  -22.239;  -29.985; 7.21227
 474.86;  -11.053;  -15.536;   -5.981; 4.48326
 475.46;  -13.830;  -10.938;  -42.983;-2.89225
 476.05;   13.315;   -0.638;    7.017;13.95289
 476.64;  -18.161;  -21.589;  -99.984; 3.42718
 477.23;   -5.226;  -17.987;   13.018;12.76079
 477.82;  -14.682;  -20.388;   -4.983; 5.70559
 478.41;  -18.478;  -10.188;  -21.983;-8.29009
 479.00;   -8.674;  -18.487;  -18.982; 9.81295
 479.59;   -8.258;  -15.035;  -39.979; 6.77713
 480.18;  -18.980;  -17.939;    0.015;-1.04043
 480.77;  -16.836;   -6.889;  -38.985;-9.94691
 481.36;  -21.582;  -16.889;  -44.985;-4.69313
 481.95;   -6.387;  -21.937;   32.019;15.54946
 482.54;  -21.898;  -30.484;    4.023; 8.58557
 483.13;  -12.199;  -15.536;  -31.981; 3.33704
 483.72;  -16.201;  -19.290;    6.014; 3.08871
 484.31;  -17.373;  -11.588;   -4.984;-5.78469
 484.90;  -25.456;  -11.989;  -33.984;-13.46742
 485.49;  -12.383;  -16.842;  -25.988; 4.45834
 486.08;  -12.009;  -24.090;   16.014;12.08062
 486.67;    1.380;    2.759;  -60.987;-1.37890
 487.26;  -23.730;  -25.591;  -64.987; 1.86084
 487.85;  -16.914;  -22.088;   -8.984; 5.17448
 488.44;  -24.448;  -28.586;  -24.981; 4.13866
 489.03;   -0.477;   -8.189;  -37.985; 7.71280
 489.62;   -6.823;  -23.341;  -14.987;16.51732
 490.21;  -15.140;  -21.339;   39.015; 6.19931
 490.80;  -12.334;  -16.540;    7.013; 4.20598
 491.39;  -12.691;  -17.389;  -30.985; 4.69769
 491.98;    1.499;  -18.690;  -40.986;20.18925
 492.57;  -12.309;  -12.242;  -15.989;-0.06629
 493.16;   -4.107;  -18.137;  -14.982;14.03022
 493.75;   -4.698;  -12.288;  -24.983; 7.58994
 494.34;   -8.916;  -23.638;   16.016;14.72286
 494.93;   -4.994;  -40.991;  -32.988;35.99700
 495.52;  -20.808;  -27.087;   -1.982; 6.27968
 496.11;  -23.840;  -25.638;   20.017; 1.79803
 496.70;  -24.220;  -30.235;  -54.978; 6.01472
 497.29;   -3.778;  -26.388;  -39.983;22.61045
 497.88;  -22.135;  -18.539;  -70.985;-3.59583
 498.47;    2.277;  -11.739;   23.015;14.01658
 499.06;  -10.856;   -9.487;    0.018;-1.36816
 499.64;   -8.503;  -29.940;  -69.986;21.43655
 500.23;  -14.019;  -29.738;   -1.984;15.71908
 500.82;  -11.052;  -20.089;  -51.984; 9.03690
 501.41;  -10.351;  -10.236;  -16.981;-0.11512
 502.00;   -7.750;  -22.988;  -21.983;15.23778
 502.59;  -22.090;  -10.439;   -6.985;-11.65069
 503.18;  -11.410;  -22.639;  -56.984;11.22880
 503.77;  -31.608;  -34.039;  -41.984; 2.43096
 504.36;    2.320;   -4.539;  -24.985; 6.85903
 504.95;  -19.897;  -30.439;  -60.984;10.54175
 505.54;  -14.374;   -8.588;  -55.983;-5.78577
 506.12;    5.644;  -20.639;  -36.984;26.28258
 506.71;  -12.705;  -11.789;  -52.984;-0.91634
 507.30;   -3.475;  -23.486;  -40.980;20.01113
 507.89;   -2.371;  -23.036;  -26.980;20.66437
 508.48;  -14.565;  -28.490;  -53.986;13.92468
 509.07;   -4.576;   -2.684;    3.022;-1.89122
 509.66;  -14.602;   -5.240;  -30.986;-9.36237
 510.25;  -12.213;  -22.186;  -22.980; 9.97301
 510.84;  -25.803;  -21.687;   -5.982;-4.11546
 511.42;  -16.211;  -19.189;  -54.984; 2.97718
 512.01;   12.961;  -14.694;  -24.992;27.65495
 512.60;  -11.243;  -19.988;  -11.983; 8.74479
 513.19;    5.693;  -30.387;   30.018;36.08022
 513.78;   -3.330;  -10.887;   63.018; 7.55701
 514.37;  -10.650;   -7.990;    6.014;-2.66021
 514.95;   -5.775;  -22.042;   11.011;16.26644
 515.54;   -2.336;  -24.739;  -69.985;22.40309
 516.13;   -1.993;  -32.288;  -12.983;30.29480
 516.72;  -20.862;   -8.440;  -56.986;-12.42262
 517.31;  -17.852;   -8.690;  -58.986;-9.16237
 517.90;  -18.929;  -30.091;  -20.987;11.16192
 518.48;    3.679;  -15.640;  -34.985;19.31874
 519.07;   -6.718;  -18.487;   -4.982;11.76889
 519.66;   13.797;    4.359;   47.012; 9.43783
 520.25;  -15.834;  -18.190;  -27.987; 2.35598
 520.84;  -15.215;  -17.688;   -2.984; 2.47340
 521.43;   -3.217;  -16.991;   14.013;13.77380
 522.01;    8.226;   -2.991;   -4.987;11.21624
 522.60;    5.519;  -15.489;   31.015;21.00849
 523.19;   -2.358;  -22.890;  -27.986;20.53169
 523.78;  -14.570;  -25.688;  -21.984;11.11854
 524.37;    2.072;  -10.437;   -8.982;12.50917
 524.95;  -15.447;  -22.991;  -70.988; 7.54485
 525.54;  -11.173;  -16.388;  -10.984; 5.21477
 526.13;   -1.546;  -23.189;  -51.984;21.64337
 526.72;   -8.919;   -6.393;   -4.991;-2.52527
 527.30;  -12.215;  -29.791;  -14.987;17.57596
 527.89;  -23.780;  -24.438;  -25.983; 0.65829
 528.48;  -16.699;  -21.641;   -5.988; 4.94215
 529.07;   -4.559;  -10.589;  -13.984; 6.02934
 529.65;   -9.466;   -9.992;  -60.989; 0.52615
 530.24;   -0.862;   -4.238;    8.016; 3.37610
 530.83;  -20.032;  -21.892;  -24.988; 1.85996
 531.42;  -12.369;   -8.691;    5.013;-3.67782
 532.00;  -18.720;  -15.590;   17.015;-3.13018
 532.59;  -16.127;  -23.843;   35.010; 7.71609
 533.18;   -2.183;  -21.843;  -29.990;19.65962
 533.77;    6.464;  -10.289;  -54.985;16.75363
 534.35;   -4.127;  -17.541;  -13.987;13.41408
 534.94;  -11.066;  -11.991;  -99.987; 0.92488
 535.53;  -19.815;  -20.293;  -42.991; 0.47797
 536.12;   -7.832;   -7.688;  -62.983;-0.14441
 536.70;  -16.795;  -27.394;  -21.991;10.59848
 537.29;   -5.723;  -25.042;  -68.989;19.31859
 537.88;  -12.520;  -21.392;  -29.989; 8.87183
 538.46;  -16.147;  -17.790;    0.014; 1.64357
 539.05;  -11.064;  -19.842;  -47.989; 8.77777
 539.64;    4.345;  -17.894;  -74.991;22.23876
 540.23;   -1.255;  -16.191;   -8.988;14.93567
 540.81;   16.765;   -1.443;   -6.990;18.20800
 541.40;   -1.811;  -20.839;  -49.984;19.02718
 541.99;    4.045;  -15.391;   -7.988;19.43567
 542.57;   -9.121;  -19.342;  -73.989;10.22075
 543.16;   22.488;  -22.090;  -58.986;44.57738
 543.75;   58.639;  -22.095;  -17.993;80.73356
 544.33;  654.273;  -20.992;  -26.989;675.26538
 544.92; 1490.631;   -9.245;   -9.992;1499.87541
 545.51; 1650.658;  -17.141;  -68.988;1667.79920
 546.09; 1669.946;  -24.140;    0.014;1694.08600
 546.68; 1687.660;   -4.390;  -60.986;1692.05058
 547.27; 1615.993;  -16.494;   10.009;1632.48665
 547.85; 1554.160;  -16.643;  -50.990;1570.80257
 548.44; 1322.056;  -26.094;  -40.991;1348.14959
 549.03;  519.719;   -3.944;  -23.992;523.66306
 549.61;   54.898;  -19.190;  -10.986;74.08763
 550.20;   23.420;  -15.043;  -14.990;38.46285
 550.78;    7.253;  -18.591;  -79.988;25.84431
 551.37;   -5.295;  -24.396;  -66.995;19.10157
 551.96;  -16.421;  -36.494;  -35.992;20.07331
 552.54;   -1.745;  -22.488;  -19.983;20.74264
 553.13;  -14.582;  -25.491;    0.013;10.90868
 553.72;    0.027;  -23.692;  -33.989;23.71859
 554.30;   -5.953;  -13.746;   20.005; 7.79293
 554.89;   -1.412;  -18.496;   -7.994;17.08376
 555.47;   -6.784;  -20.193;  -43.990;13.40854
 556.06;  -11.162;  -13.741;    8.013; 2.57919
 556.65;  -11.301;  -16.793;    1.010; 5.49180
 557.23;   -5.565;  -13.342;  -23.989; 7.77723
 557.82;  -29.633;  -19.844;  -43.992;-9.78857
 558.40;   -8.686;   -9.443;  -29.990; 0.75692
 558.99;  -19.186;  -21.238;  -53.983; 2.05235
 559.58;   -2.332;  -24.140;  -25.987;21.80814
 560.16;  -18.373;  -20.438;    2.016; 2.06477
 560.75;  -21.062;  -25.490;  -25.986; 4.42792
 561.33;   -8.189;  -12.493;   27.010; 4.30368
 561.92;  -13.237;  -25.040;   -2.987;11.80328
 562.50;  -16.463;  -26.043;   19.009; 9.58013
 563.09;   -8.768;   -6.842;  -10.989;-1.92601
 563.68;  -19.095;  -23.143;  -28.990; 4.04720
 564.26;   -9.546;  -18.991;  -20.988; 9.44538
 564.85;  -11.462;  -23.742;  -53.989;12.27993
 565.43;    3.745;  -13.791;  -52.988;17.53567
 566.02;  -19.233;  -23.392;  -17.988; 4.15834
 566.60;   -7.650;   -5.894;  -34.991;-1.75584
 567.19;  -15.858;  -21.441;  -64.988; 5.58297
 567.77;   -7.176;  -17.696;  -64.994;10.51919
 568.36;  -16.507;  -19.695;  -18.993; 3.18788
 568.94;  -11.122;  -24.093;  -24.991;12.97149
 569.53;  -18.193;  -13.293;  -37.990;-4.90010
 570.11;   -5.863;  -22.246;  -28.994;16.38268
 570.70;  -27.721;  -34.593;  -28.991; 6.87257
 571.28;    2.803;  -14.239;  -67.984;17.04229
 571.87;  -23.164;  -33.196;  -94.994;10.03214
 572.45;   -3.934;  -13.194;  -34.992; 9.26035
 573.04;  -17.964;  -27.890;  -52.986; 9.92522
 573.62;  -14.764;  -26.843;  -32.991;12.07905
 574.21;   -7.496;  -19.443;  -61.990;11.94666
 574.79;   14.532;  -16.688;  -67.984;31.22070
 575.38;   79.531;  -18.843;  -69.991;98.37419
 575.96;  168.730;  -30.746;  -18.994;199.47566
 576.55;  152.775;  -26.194;  -58.992;178.96952
 577.13;  218.365;  -26.445;   -0.994;244.81054
 577.72;  287.004;  -24.194;  -47.991;311.19741
 578.30;  334.913;  -18.842; -108.988;353.75455
 578.89;  320.995;  -31.396;   -1.995;352.39076
 579.47;  296.474;  -19.242;    4.011;315.71589
 580.06;  201.255;  -37.440;  -68.986;238.69519
 580.64;  155.589;  -20.494; -101.991;176.08228
 581.23;  142.086;  -28.793;  -64.991;170.87904
 581.81;   83.084;  -17.142;  -20.989;100.22615
 582.39;  -16.803;  -25.594;  -49.991; 8.79092
 582.98;  -14.049;  -20.640;  -42.986; 6.59141
 583.56;  -25.284;  -30.889;  -32.985; 5.60471
 584.15;   -8.541;  -16.742;  -46.988; 8.20024
 584.73;  -15.173;  -23.639;  -42.985; 8.46604
 585.32;   -2.838;  -17.992;  -26.988;15.15348
 585.90;   -6.468;  -11.340;  -91.985; 4.87144
 586.48;  -10.048;  -15.343;    9.010; 5.29504
 587.07;  -25.435;  -25.943;  -11.990; 0.50800
 587.65;   -7.287;  -12.693;  -23.990; 5.40584
 588.24;  -29.406;  -29.094;   38.009;-0.31232
 588.82;   -2.726;  -26.893;  -59.990;24.16663
 589.41;  216.415;  186.406;   14.008;30.00928
 589.99;   10.639;  -11.791;   38.013;22.42973
 590.57;  -38.587;  -41.345;  -21.993; 2.75785
 591.16;   -2.775;  -11.041;  -22.987; 8.26516
 591.74;  -29.819;   -8.843;   18.009;-20.97581
 592.32;  -18.025;  -19.244;   15.008; 1.21953
 592.91;  -10.435;  -21.490;  -28.987;11.05544
 593.49;  -17.469;  -34.595;   -8.992;17.12600
 594.08;  -21.751;  -28.541;  -55.988; 6.79053
 594.66;  -17.429;  -15.694;   11.008;-1.73425
 595.24;   -9.360;  -23.395;   -8.993;14.03464
 595.83;  -15.460;  -14.742;   37.011;-0.71791
 596.41;  -25.830;  -27.947;   -8.995; 2.11722
 596.99;  -10.405;  -17.045;   20.007; 6.63950
 597.58;  -25.689;  -25.894;   31.008; 0.20495
 598.16;   -9.224;  -15.389;  -10.985; 6.16550
 598.74;  -15.755;  -14.394;  -29.991;-1.36178
 599.33;  -16.778;  -15.892;  -20.989;-0.88626
 599.91;  -39.152;  -22.841;  -25.988;-16.31055
 600.49;  -29.389;   -5.140;  -52.986;-24.24887
 601.08;   -9.368;  -12.045;   12.008; 2.67654
 601.66;  -14.979;  -23.244;  -60.992; 8.26575
 602.24;  -24.292;  -34.895;  -34.993;10.60353
 602.83;  -25.800;  -26.395; -104.993; 0.59489
 603.41;  -15.523;  -30.944;  -78.992;15.42115
 603.99;  -13.048;  -20.836;  -15.981; 7.78812
 604.58;  -14.659;  -22.444;  -44.991; 7.78444
 605.16;  -18.368;  -19.392;  -21.989; 1.02453
 605.74;  -13.669;  -35.243;  -54.991;21.57419
 606.33;   -2.491;  -29.544;  -13.992;27.05280
 606.91;  -16.607;  -22.691;   20.012; 6.08405
 607.49;   -4.520;  -24.792;    7.011;20.27237
 608.07;  -20.863;  -19.495;  -28.993;-1.36860
 608.66;  -25.242;  -24.594;  -53.992;-0.64775
 609.24;  -20.080;  -18.444;  -68.992;-1.63587
 609.82;  -22.193;  -23.043;  -51.990; 0.84936
 610.41;  -21.634;  -27.843;  -14.990; 6.20854
 610.99;  -32.901;  -26.944;  -34.991;-5.95746
 611.57;  -20.008;  -23.146;  -46.994; 3.13808
 612.15;  -30.934;  -21.493;  -44.990;-9.44092
 612.74;  -18.506;  -23.446;  -59.995; 4.94024
 613.32;  -10.923;  -20.743;  -53.990; 9.82041
 613.90;  -24.489;  -20.344;  -19.992;-4.14505
 614.48;  -25.311;  -13.192;  -17.989;-12.11845
 615.07;  -26.967;  -25.340;    5.015;-1.62748
 615.65;  -25.919;  -29.647;  -55.996; 3.72802
 616.23;  -29.671;  -31.993;  -70.991; 2.32203
 616.81;  -20.919;  -27.338;  -25.984; 6.41908
 617.40;  -31.531;  -35.536;  -48.980; 4.00466
 617.98;  -23.184;  -20.833;  -59.976;-2.35113
 618.56;  -32.481;  -31.089;  -85.985;-1.39205
 619.14;  -30.700;  -12.788;  -45.983;-17.91276
 619.72;  -31.144;  -39.088;  -78.983; 7.94372
 620.31;  -20.933;  -20.240;   -6.987;-0.69294
 620.89;  -26.569;  -15.742;  -41.989;-10.82709
 621.47;  -33.940;  -25.292;   -6.988;-8.64814
 622.05;  -28.415;  -45.342;   -8.989;16.92669
 622.63;   -9.199;  -29.540;  -27.986;20.34087
 623.22;  -26.802;  -30.445;  -47.993; 3.64274
 623.80;  -24.068;  -16.090;  -34.985;-7.97856
 624.38;  -14.977;  -15.593;   -9.990; 0.61609
 624.96;  -26.249;  -22.940;  -10.986;-3.30859
 625.54;  -42.018;  -44.691;  -41.987; 2.67326
 626.13;  -25.073;  -32.394;  -63.992; 7.32114
 626.71;    7.128;    4.858;  -19.989; 2.26967
 627.29;  -34.027;  -18.037;  -18.982;-15.98975
 627.87;  -31.183;  -34.592;  -15.988; 3.40834
 628.45;  -21.719;  -29.392;  -16.989; 7.67291
 629.03;  -35.815;  -17.291;    0.013;-18.52459
 629.62;  -34.228;  -26.991;  -55.987;-7.23700
 630.20;  -27.461;  -29.991;  -27.987; 2.52973
 630.78;  -27.840;  -25.043;   10.010;-2.79686
 631.36;  -37.187;  -16.239;  -20.985;-20.94745
 631.94;  -24.175;  -30.143;   -9.990; 5.96771
 632.52;  -33.636;  -15.044;    2.008;-18.59181
 633.10;  -25.884;  -18.639;  -43.985;-7.24529
 633.68;  -29.302;  -30.540;  -28.986; 1.23817
 634.27;  -33.272;  -24.591;  -16.987;-8.68160
 634.85;  -26.717;  -27.990;  -22.985; 1.27252
 635.43;  -18.042;  -23.687;  -14.981; 5.64406
 636.01;  -31.968;  -27.042;  -45.989;-4.92601
 636.59;  -22.547;  -28.641;  -14.988; 6.09431
 637.17;  -23.171;  -28.235;  -62.978; 5.06364
 637.75;  -17.950;  -29.189;   -9.984;11.23852
 638.33;  -28.114;  -25.388;  -23.984;-2.72552
 638.91;  -30.321;  -19.990;   -2.985;-10.33180
 639.50;  -45.909;  -35.586;   -1.981;-10.32322
 640.08;  -27.390;  -26.840;  -67.986;-0.55010
 640.66;  -30.239;  -40.790;  -76.986;10.55089
 641.24;    1.612;   -9.840;  -59.986;11.45187
 641.82;  -37.188;  -27.340;  -89.987;-9.84715
 642.40;  -18.637;  -22.490;  -12.987; 3.85383
 642.98;  -25.836;  -31.790;  -55.987; 5.95481
 643.56;  -27.435;  -23.440;  -18.987;-3.99421
 644.14;  -26.934;  -40.340;  -15.987;13.40677
 644.72;  -22.833;  -33.240;  -46.987;10.40775
 645.30;  -19.282;  -19.391;  -36.987; 0.10873
 645.88;  -16.731;  -17.691;    4.013; 0.95971
 646.46;  -30.730;  -27.591;  -29.987;-3.13931
 647.04;  -40.629;  -28.341;  -33.987;-12.28833
 647.62;  -17.478;  -24.841;  -57.987; 7.36265
 648.20;  -11.027;  -26.941;  -30.987;15.91363
 648.78;  -18.176;  -20.341;  -57.987; 2.16461
 649.36;  -21.825;  -23.441;  -40.987; 1.61559
 649.94;  -34.774;  -30.041;  -84.987;-4.73343
 650.52;  -31.173;  -22.141;   -4.987;-9.03245
 651.11;  -33.772;  -27.341;  -37.987;-6.43146
 651.69;  -23.771;  -26.241;  -12.987; 2.46952
 652.27;  -38.270;  -23.691;  -24.987;-14.57950
 652.85;  -31.869;  -19.341;   -8.987;-12.52852
 653.43;  -25.068;  -30.091;  -38.987; 5.02246
 654.01;  -32.167;  -28.641;  -54.987;-3.52656
 654.59;  -34.016;  -26.791;  -50.987;-7.22558
 655.17;  -23.616;  -22.391;  -64.987;-1.22460
 655.74;  -37.265;  -30.341;  -52.987;-6.92362
 656.32;  -27.064;  -18.991;    4.013;-8.07264
 656.90;  -31.613;  -41.141;  -27.987; 9.52834
 657.48;  -14.212;  -16.541;  -21.987; 2.32932
 658.06;  -29.961;  -34.941;  -26.987; 4.98030
 658.64;  -24.810;  -19.041;  -24.987;-5.76872
 659.22;  -47.309;  -33.741;  -31.988;-13.56774
 659.80;  -27.358;  -20.841;    6.012;-6.51675
 660.38;  -37.357;  -25.641;  -50.988;-11.71577
 660.96;  -20.506;  -30.241;   28.012; 9.73521
 661.54;  -31.655;  -32.191;  -24.988; 0.53619
 662.12;  -21.254;  -25.991;   14.012; 4.73717
 662.70;  -39.653;  -32.291;  -26.988;-7.36185
 663.28;  -22.402;  -28.791;  -13.988; 6.38913
 663.86;  -26.451;  -22.491;  -25.988;-3.95989
 664.44;  -19.500;  -17.991;  -44.988;-1.50891
 665.02;  -39.099;  -40.141;  -12.988; 1.04207
 665.60;  -18.898;  -13.091;   10.012;-5.80695
 666.18;  -19.997;  -22.841;  -66.988; 2.84403
 666.75;   -1.196;   -7.941;  -70.988; 6.74501
 667.33;  -27.645;  -22.241;  -46.988;-5.40401
 667.91;    8.456;   -4.991;   -2.988;13.44697
 668.49;  -13.394;  -18.991;  -50.988; 5.59795
 669.07;   -7.043;  -21.491;  -73.988;14.44894
 669.65;  -30.792;  -24.042;  -43.988;-6.75008
 670.23;  -23.741;  -22.392;  -65.988;-1.34910
 670.81;  -34.290;  -35.842;  -57.988; 1.55188
 671.39;  -30.289;  -21.392;  -35.988;-8.89714
 671.97;  -32.188;  -33.592;  -42.988; 1.40384
 672.54;  -18.287;  -19.292;    4.012; 1.00482
 673.12;  -18.236;  -22.692;    5.012; 4.45580
 673.70;  -32.285;  -25.792;  -84.988;-6.49322
 674.28;  -14.684;  -14.742;  -65.988; 0.05776
 674.86;  -15.383;  -18.442;  -19.988; 3.05874
 675.44;  -24.332;  -20.442;  -49.988;-3.89028
 676.02;  -16.531;  -23.392; -101.988; 6.86070
 676.59;  -20.280;  -18.592;  -68.989;-1.68832
 677.17;  -13.129;  -30.392;  -34.989;17.26266
 677.75;  -18.178;  -22.242;  -25.989; 4.06365
 678.33;  -21.727;  -38.092;  -36.989;16.36463
 678.91;  -35.576;  -37.242;  -70.989; 1.66560
 679.49;  -23.075;  -25.092;  -30.989; 2.01659
 680.06;  -30.524;  -47.142;  -67.989;16.61757
 680.64;  -37.423;  -26.842;  -44.989;-10.58145
 681.22;  -28.172;  -31.242;  -44.989; 3.06953
 681.80;  -23.571;  -20.542;  -11.989;-3.02949
 682.38;  -23.121;  -28.142;    6.011; 5.02149
 682.96;  -14.920;  -21.492;  -75.989; 6.57247
 683.53;  -32.919;  -28.042;  -36.989;-4.87655
 684.11;  -20.468;  -28.242;   -4.989; 7.77443
 684.69;  -27.617;  -31.192;  -67.989; 3.57541
 685.27;   -9.466;  -16.942;  -58.989; 7.47639
 685.85;  -14.615;  -30.892;  -57.989;16.27737
 686.42;  -23.264;  -34.392;  -90.989;11.12836
 687.00;  -15.363;  -33.842;  -50.989;18.47933
 687.58;   -8.412;  -22.942;   -1.989;14.53031
 688.16;  -22.011;  -30.442;  -73.989; 8.43130
 688.73;  -12.310;  -31.542;  -60.989;19.23228
 689.31;   -8.559;  -20.942;   -7.989;12.38326
 689.89;    2.042;  -25.842;  -35.989;27.88424
 690.47;   -4.607;  -20.942;   -0.989;16.33522
 691.04;  -11.006;  -18.992;  -32.989; 7.98620
 691.62;   -1.505;  -16.942;   23.011;15.43718
 692.20;   -7.354;  -35.442;   -3.989;28.08816
 692.78;   -5.153;  -16.942;  -55.989;11.78914
 693.35;   -9.402;  -29.692;  -54.989;20.29012
 693.93;   -5.951;  -26.343;   -6.990;20.39110
 694.51;  118.600;  -24.493;  -56.990;143.09208
 695.09;  639.750;  -17.593;   18.010;657.34304
 695.66;  901.601;  -35.243;  -43.990;936.84401
 696.24;  913.502;  -40.593;  -35.990;954.09504
 696.82;  927.203;  -27.193;  -17.990;954.39599
 697.39;  916.754;  -33.993;  -40.990;950.74698
 697.97;  878.205;  -28.693;  -38.990;906.89799
 698.55;  820.006;  -37.043;   -1.990;857.04892
 699.13;  570.007;  -32.793;   46.010;602.79992
 699.70;  127.358;  -50.293;  -72.990;177.65091
 700.28;    6.159;  -26.143;  -68.990;32.30189
 700.86;  -18.090;  -33.043;    8.010;14.95287
 701.43;  -10.489;  -38.293;   29.010;27.80385
 702.01;  -15.388;  -29.893;  -62.990;14.50483
 702.59;   -6.787;  -29.493;  -46.990;22.70581
 703.16;  -16.136;  -28.993;  -48.990;12.85679
 703.74;   -8.685;  -31.243;  -11.990;22.55777
 704.32;  -10.584;  -22.093; -103.990;11.50875
 704.89;  133.617;  -26.393;   36.010;160.00973
 705.47;  386.318;  -29.943;  -35.990;416.26073
 706.05;  469.269;  -20.543;  -62.990;489.81171
 706.62;  446.970;  -39.093;   -9.990;486.06266
 707.20;  463.921;  -41.943;  -27.990;505.86364
 707.78;  446.222;  -32.593;  -27.990;478.81463
 708.35;  429.523;  -33.693;   10.010;463.21562
 708.93;  384.473;  -28.593;  -59.990;413.06660
 709.51;  179.324;  -37.493;    7.010;216.81758
 710.08;   16.225;  -25.843;  -75.990;42.06856
 710.66;    0.776;  -16.693;  -17.990;17.46954
 711.23;  -19.123;  -36.143;  -84.991;17.02052
 711.81;  -19.072;  -31.093;  -33.991;12.02150
 712.39;  -12.571;  -34.993;  -34.991;22.42248
 712.96;   22.730;  -44.493;  -69.991;67.22346
 713.54;   39.781;  -26.443;  -46.991;66.22444
 714.11;   46.032;  -29.793;  -30.991;75.82542
 714.69;   37.233;  -29.343;   -2.991;66.57641
 715.27;   56.384;  -22.243;  -69.991;78.62739
 715.84;   44.035;  -24.693;    9.009;68.72836
 716.42;   55.386;  -37.143;   -9.991;92.52935
 716.99;   41.087;  -34.993;  -57.991;76.08033
 717.57;    3.938;  -25.093;  -27.991;29.03131
 718.15;  -30.311;  -33.994;  -56.991; 3.68229
 718.72;  -18.460;  -14.044;  -57.991;-4.41673
 719.30;  -35.559;  -36.594;   21.009; 1.03425
 719.87;  -27.908;  -26.494;  -44.991;-1.41477
 720.45;  -22.357;  -50.044;   -5.991;27.68621
 721.02;  -20.656;  -25.094;  -56.991; 4.43719
 721.60;  -38.255;  -23.844;   -4.991;-14.41183
 722.17;   -9.505;  -26.494;  -23.991;16.98915
 722.75;  -21.104;  -24.544;  -50.991; 3.44013
 723.33;  -23.103;  -27.694;  -50.991; 4.59111
 723.90;  -23.752;  -18.244;  -64.991;-5.50790
 724.48;  -25.601;  -36.144;  -58.991;10.54308
 725.05;  -10.550;  -32.794;  -35.991;22.24406
 725.63;   91.351;  -16.144;  -25.991;107.49504
 726.20;  158.452;  -33.244;  -47.991;191.69601
 726.78;  177.203;  -35.594;  -64.991;212.79700
 727.35;  181.204;  -13.844;   28.009;195.04798
 727.93;  166.605;  -20.294;  -75.991;186.89896
 728.50;  172.906;  -16.694;  -96.992;189.59994
 729.08;  157.957;  -34.494;  -51.992;192.45092
 729.65;  151.708;  -21.544;   -4.992;173.25189
 730.23;   62.009;  -25.094;  -13.992;87.10288
 730.80;  -27.090;  -23.544;  -21.992;-3.54614
 731.38;  -17.239;  -32.944;  -20.992;15.70484
 731.95;   -6.788;  -21.494;  -21.992;14.70582
 732.53;  -10.487;  -19.494;  -44.992; 9.00680
 733.10;  -26.386;  -33.994;  -68.992; 7.60779
 733.68;   -2.785;  -26.194;  -34.992;23.40877
 734.25;  -18.234;  -25.444;  -20.992; 7.20975
 734.82;  -28.933;  -30.344;   37.008; 1.41073
 735.40;   -0.833;  -39.544;  -62.992;38.71171
 735.97;   18.568;  -17.844;  -22.992;36.41269
 736.55;  254.169;  -21.444;   16.008;275.61367
 737.12;  629.720;  -22.994;   -4.992;652.71462
 737.70;  748.971;  -37.094;    2.008;786.06562
 738.27;  768.122;  -33.394;  -53.992;801.51659
 738.85;  771.873;  -38.494;  -25.992;810.36759
 739.42;  733.474;  -35.294;  -35.992;768.76857
 739.99;  712.275;  -38.294;  -42.992;750.56955
 740.57;  669.076;  -29.144;  -32.992;698.22054
 741.14;  343.927;  -33.094;  -44.992;377.02152
 741.72;   70.778;  -27.644;  -32.992;98.42249
 742.29;   -0.271;  -32.345;  -47.992;32.07347
 742.87;   -8.470;  -21.595;  -41.992;13.12446
 743.44;    3.581;  -43.745;    9.008;47.32544
 744.01;   -5.318;  -36.895;  -32.992;31.57642
 744.59;  -19.767;  -37.595;  -16.992;17.82740
 745.16;   -6.366;  -29.745;    2.008;23.37838
 745.73;  -14.915;  -23.945;  -68.993; 9.02936
 746.31;   -6.864;  -30.295;  -19.993;23.43034
 746.88;  -24.213;  -41.545;  -84.993;17.33132
 747.46;    4.988;  -24.745;  -34.993;29.73230
 748.03;   29.189;  -37.245;  -20.993;66.43328
 748.60;  339.639;  -38.095;    1.007;377.73426
 749.18;  769.940;  -43.795;  -25.993;813.73522
 749.75; 1224.791;  -35.745;  -14.993;1260.53619
 750.32; 1571.642;  -39.845;  -39.993;1611.48717
 750.90; 1680.293;  -25.945;  -30.993;1706.23819
 751.47; 1667.694;  -11.295;  -21.993;1678.98922
 752.04; 1590.045;  -26.395;   -6.993;1616.44020
 752.62; 1509.196;  -44.195;   12.007;1553.39110
 753.19; 1145.247;  -24.445; -101.993;1169.69215
 753.76;  712.998;  -43.995;  -47.993;756.99308
 754.34;  312.849;  -21.245;    1.007;334.09406
 754.91;   73.400;  -37.795;  -35.993;111.19505
 755.48;   21.651;  -28.695;    6.007;50.34603
 756.06;   15.152;  -17.695;  -26.993;32.84701
 756.63;   27.403;  -20.945;  -19.993;48.34799
 757.20;   11.554;  -30.995;  -21.993;42.54897
 757.78;   -7.295;  -27.695;  -67.993;20.39995
 758.35;   13.356;  -35.745;  -52.993;49.10093
 758.92;   28.357;  -36.495;  -55.993;64.85192
 759.50;    9.808;  -39.395;   -1.993;49.20289
 760.07;   26.759;  -26.395;  -46.993;53.15387
 760.64;   37.810;  -32.745;  -91.993;70.55486
 761.21;  185.611;  -40.145;  -18.993;225.75584
 761.79; 1585.611;  -27.345;  -15.993;1612.95676
 762.36; 2986.863;  -30.095;   -6.993;3016.95788
 762.93; 3322.563;  -40.145;  -41.994;3362.70884
 763.50; 3378.114;  -25.445;    0.006;3403.55964
 764.08; 3398.465;  -44.945;  -63.994;3443.41074
 764.65; 3277.266;  -22.945;  -41.994;3300.21179
 765.22; 3166.467;  -35.845;  -69.994;3202.31274
 765.79; 2782.218;  -26.145;  -48.994;2808.36374
 766.37; 1262.519;  -24.796;  -45.994;1287.31467
 766.94;  240.020;  -30.346;   26.006;270.36564
 767.51;   48.921;  -29.146;  -26.994;78.06662
 768.08;   31.622;  -18.296;  -26.994;49.91760
 768.66;   21.573;  -25.446;    3.006;47.01858
 769.23;   21.574;  -19.446;  -48.994;41.01956
 769.80;   21.875;  -31.496;  -28.994;53.37054
 770.37;  202.926;  -27.096;  -93.994;230.02153
 770.94;  780.927;  -35.996;  -99.994;816.92251
 771.52; 1084.078;  -14.296;  -10.994;1098.37347
 772.09; 1122.279;  -46.196;    5.006;1168.47443
 772.66; 1143.380;  -28.846;   17.006;1172.22540
 773.23; 1103.231;  -30.746;  -48.994;1133.97638
 773.80; 1090.082;  -31.346;    4.006;1121.42735
 774.38; 1018.133;  -33.546;  -45.994;1051.67840
 774.95;  730.734;  -24.946;   -9.994;755.67938
 775.52;  222.534;  -41.596;  -15.994;264.13035
 776.09;   35.785;  -28.996;  -16.994;64.78133
 776.66;   -2.414;  -38.646;    6.006;36.23231
 777.24;  -11.213;  -20.896;  -44.994; 9.68329
 777.81;    6.038;  -19.196; -102.994;25.23427
 778.38;    6.239;  -33.696;  -39.994;39.93526
 778.95;  -10.060;  -31.346;  -16.994;21.28624
 779.52;    4.841;  -20.796;  -44.994;25.63722
 780.09;   -0.508;  -20.796;  -46.995;20.28820
 780.66;  -19.007;  -43.496;  -95.995;24.48918
 781.24;  -14.456;  -34.096;  -37.995;19.64016
 781.81;  -17.055;  -27.996;  -54.995;10.94114
 782.38;  -12.854;  -41.196;  -62.995;28.34212
 782.95;   -5.853;  -31.646;  -65.995;25.79310
 783.52;  -20.052;  -34.146;  -63.995;14.09408
 784.09;   -8.201;  -22.296;  -50.995;14.09506
 784.66;  -12.650;  -16.596;  -55.995; 3.94604
 785.23;   -4.249;  -34.046;   30.005;29.79702
 785.80;  -18.748;  -30.446;  -14.995;11.69800
 786.38;  -17.297;  -27.546;   -9.995;10.24898
 786.95;  -26.546;  -19.996;  -75.995;-6.55004
 787.52;  -16.795;  -32.496;  -41.995;15.70095
 788.09;  -22.744;  -39.646;  -12.995;16.90192
 788.66;   -5.044;  -33.746;  -13.995;28.70291
 789.23;  -13.243;  -13.896;  -68.995; 0.65389
 789.80;   -6.842;  -25.596;    0.005;18.75487
 790.37;   -7.541;  -22.497;  -70.995;14.95585
 790.94;   10.460;  -15.647;   21.005;26.10683
 791.51;   -9.939;  -36.547;    3.005;26.60781
 792.08;   -6.588;  -43.997;  -62.995;37.40879
 792.65;   82.963;  -41.797;   -5.995;124.75977
 793.22;  438.864;  -26.347;   -3.995;465.21076
 793.80;  662.015;  -29.597;    6.005;691.61172
 794.37;  744.866;  -21.997;  -64.995;766.86270
 794.94;  738.767;  -25.297;  -69.995;764.06372
 795.51;  751.818;  -29.347;   -8.995;781.16465
 796.08;  705.619;  -17.747;  -57.995;723.36563
 796.65;  679.070;  -26.997;  -48.995;706.06665
 797.22;  540.621;  -36.047;  -46.996;576.66764
 797.79;  237.422;  -18.297;    9.004;255.71859
 798.36;   58.073;  -37.947;  -12.996;96.01958
 798.93;  282.374;  -38.047;  -10.996;320.42055
 799.50;  616.125;  -40.147;  -14.996;656.27151
 800.07; 1084.076;  -26.147;  -39.996;1110.22247
 800.64; 1262.077;  -39.097;   10.004;1301.17347
 801.21; 1291.427;  -43.547;  -74.996;1334.97445
 801.78; 1286.879;  -20.397;  -57.996;1307.27552
 802.35; 1241.529;  -44.747;  -59.996;1286.27642
 802.92; 1137.930;  -39.247;   12.004;1177.17744
 803.49;  891.331;  -24.547;   17.004;915.87841
 804.06;  525.732;  -45.647;  -63.996;571.37937
 804.63;  141.183;  -27.597;   -4.996;168.78037
 805.20;   32.834;  -29.447;  -51.996;62.28135
 805.77;   24.335;  -42.597;  -47.996;66.93233
 806.34;    6.036;  -36.097;  -27.996;42.13331
 806.91;   19.837;  -33.197;  -29.996;53.03429
 807.47;    4.738;  -37.147;   25.004;41.88527
 808.04;   74.439;  -30.447;  -21.996;104.88625
 808.61;  380.790;  -45.447;  -41.996;426.23724
 809.18;  812.341;  -35.397;  -25.996;847.73823
 809.75; 1752.842;  -41.997;  -34.996;1794.83923
 810.32; 2732.843;  -36.347;  -51.996;2769.19011
 810.89; 3011.544;  -36.147;  -12.996;3047.69106
 811.46; 3065.595;  -34.497;   27.004;3100.09211
 812.03; 3007.646;  -27.347;  -68.996;3034.99316
 812.60; 2863.547;  -34.097;  -71.996;2897.64406
 813.17; 2443.948;  -46.247;  -55.996;2490.19496
 813.74; 1976.549;  -30.097;  -32.996;2006.64606
 814.31; 1003.150;  -27.448;  -66.996;1030.59704
 814.87;  220.100;  -34.348;  -38.997;254.44802
 815.44;   40.951;  -22.998;  -49.997;63.94900
 816.01;   24.102;  -16.948;  -43.997;41.04998
 816.58;  -14.447;  -45.498;   -4.997;31.05096
 817.15;    4.004;  -27.748;  -15.997;31.75194
 817.72;   -8.145;  -39.498;  -25.997;31.35292
 818.29;   10.756;   -9.048;  -24.997;19.80390
 818.86;   -2.793;  -25.098;  -63.997;22.30488
 819.42;    2.558;  -25.848;  -86.997;28.40586
 819.99;  -18.341;  -47.548;  -25.997;29.20684
 820.56;  -23.740;  -37.548;  -26.997;13.80782
 821.13;  -12.289;  -25.148;  -52.997;12.85880
 821.70;  -17.838;  -32.348;  -31.997;14.50978
 822.27;  -16.637;  -34.048;  -51.997;17.41076
 822.84;   -9.186;  -34.398;  -58.997;25.21174
 823.40;  -15.035;  -40.148;  -49.997;25.11272
 823.97;    1.316;  -33.798;  -66.997;35.11370
 824.54;  152.267;  -39.698;  -75.997;191.96468
 825.11;  413.768;  -39.748;  -47.997;453.51565
 825.68;  536.819;  -25.648;  -99.997;562.46664
 826.24;  545.670;  -33.048;  -68.997;578.71762
 826.81;  538.271;  -32.648;  -41.997;570.91859
 827.38;  541.522;  -30.998;  -61.997;572.51959
 827.95;  516.672;  -45.698;  -97.997;562.37056
 828.52;  487.623;  -34.298;  -21.997;521.92154
 829.08;  292.624;  -36.648;  -62.997;329.27254
 829.65;   74.425;  -26.748;  -42.997;101.17351
 830.22;    9.226;  -39.348;  -22.997;48.57449
 830.79;  -12.523;  -24.948;  -40.997;12.42547
 831.36;  -23.822;  -39.548;  -28.998;15.72645
 831.92;    9.479;  -18.348;  -43.998;27.82743
 832.49;   -9.720;  -42.898;   -9.998;33.17841
 833.06;  -11.869;  -34.348;  -37.998;22.47939
 833.63;  -12.768;  -28.298;   49.002;15.53037
 834.19;  -20.917;  -34.698;  -18.998;13.78136
 834.76;  -13.716;  -38.698;    2.002;24.98234
 835.33;  -13.315;  -30.048;  -26.998;16.73332
 835.90;  -10.714;  -44.298;  -46.998;33.58430
 836.46;  -13.163;  -26.648;  -17.998;13.48528
 837.03;  -16.062;  -36.498;  -17.998;20.43626
 837.60;  -18.411;  -42.498;  -22.998;24.08724
 838.17;    1.790;  -39.949;  -17.998;41.73822
 838.73;  119.991;  -24.149;  -15.998;144.13920
 839.30;  453.492;  -34.499;  -42.998;487.99018
 839.87;  661.793;  -25.549;  -54.998;687.34118
 840.43;  908.694;  -36.549;  -25.998;945.24214
 841.00; 1464.145;  -32.849;  -84.998;1496.99315
 841.57; 1732.095;  -31.949;  -35.998;1764.04410
 842.14; 1749.246;  -38.449;  -59.998;1787.69513
 842.70; 1741.897;  -28.449;  -71.998;1770.34603
 843.27; 1593.748;  -24.199;  -22.998;1617.94701
 843.84; 1230.249;  -32.799;   -6.998;1263.04801
 844.40; 1054.650;  -30.599;  -17.998;1085.24903
 844.97;  736.601;  -36.549;  -53.998;773.14998
 845.54;  254.752;  -40.299;  -81.998;295.05096
 846.10;   31.853;  -27.649;   -1.998;59.50195
 846.67;   -4.096;  -33.199;   -3.998;29.10293
 847.24;  -22.745;  -27.049;  -48.998; 4.30391
 847.80;  -10.844;  -28.649;  -24.998;17.80489
 848.37;  -22.493;  -36.099;  -68.998;13.60587
 848.94;   -2.442;  -34.149;  -32.999;31.70685
 849.50;   -0.641;  -38.349;    4.001;37.70783
 850.07;   53.410;  -19.899;  -76.999;73.30881
 850.63;  243.361;  -32.599;  -48.999;275.95979
 851.20;  354.562;  -26.049;  -14.999;380.61078
 851.77;  374.813;  -45.099;  -12.999;419.91175
 852.33;  395.314;  -21.799;  -31.999;417.11272
 852.90;  356.015;  -32.899;  -70.999;388.91371
 853.47;  381.166;  -13.149;  -14.999;394.31470
 854.03;  330.316;  -32.199;  -17.999;362.51566
 854.60;  258.467;  -31.899;   -6.999;290.36666
 855.16;   70.468;  -32.099;  -75.999;102.56763
 855.73;   -5.631;  -32.849;  -69.999;27.21862
 856.30;  -19.180;  -30.749;  -73.999;11.56960
 856.86;  -26.729;  -29.149;  -34.999; 2.42058
 857.43;  -18.428;  -25.649;  -43.999; 7.22156
 857.99;  -19.277;  -32.599;  -87.999;13.32254
 858.56;  -35.076;  -42.249;  -12.999; 7.17352
 859.12;  -36.575;  -35.649;  -42.999;-0.92550
 859.69;  -42.574;  -38.449;  -61.999;-4.12452
 860.26;  -21.773;  -41.399;  -49.999;19.62646
 860.82;  -24.072;  -38.399;  -31.999;14.32745
 861.39;  -18.271;  -35.699;  -52.999;17.42843
 861.95;  -35.770;  -42.200;  -55.999; 6.42941
 862.52;  -27.769;  -24.600;    3.001;-3.16961
 863.08;  -37.068;  -39.850;  -60.999; 2.78137
 863.65;  -17.167;  -32.800;  -69.999;15.63235
 864.21;  -39.066;  -41.800;  -36.999; 2.73333
 864.78;    9.985;  -23.900;  -71.999;33.88431
 865.34;   39.786;  -16.650;  -53.000;56.43529
 865.91;   34.187;  -28.650;   21.000;62.83627
 866.47;   20.138;  -43.500;  -51.000;63.63725
 867.04;   45.689;  -26.600;  -29.000;72.28823
 867.61;   22.739;  -45.450;   -6.000;68.18921
 868.17;   35.690;  -36.050;  -81.000;71.74020
 868.74;   14.691;  -40.550;   24.000;55.24117
 869.30;   11.442;  -32.550;  -58.000;43.99215
 869.86;  -18.157;  -34.500;  -47.000;16.34313
 870.43;  -34.256;  -37.650;  -43.000; 3.39412
 870.99;  -29.905;  -40.300;  -27.000;10.39510
 871.56;  -21.604;  -26.600;  -54.000; 4.99608
 872.12;  -35.653;  -39.550;  -67.000; 3.89706
 872.69;  -30.152;  -32.550;   26.000; 2.39804
 873.25;  -37.051;  -31.950;  -58.000;-5.10098
 873.82;  -18.550;  -38.950;  -74.000;20.40000
 874.38;  -29.750;  -37.100;  -67.000; 7.35000
 874.95;  -14.350;  -28.500;  -28.000;14.15000
 875.51;  -33.850;  -30.650;  -17.000;-3.20000
 876.08;  -25.050;  -40.700;  -19.000;15.65000
 876.64;  -38.550;  -44.900;  -41.000; 6.35000
 877.20;  -23.900;  -37.650;  -72.000;13.75000
 877.77;  -41.600;  -55.250;  -14.000;13.65000
 878.33;  -36.200;  -28.450;  -15.000;-7.75000
 878.90;  -36.000;  -37.200;  -54.000; 1.20000
 879.46;  -31.550;  -28.450;  -57.000;-3.10000
 880.03;  -40.100;  -30.200;  -48.000;-9.90000
 880.59;  -32.200;  -21.250;   13.000;-10.95000
 881.15;  -22.350;  -43.550;  -44.000;21.20000
 881.72;  -28.750;  -31.800;  -21.000; 3.05000
 882.28;  -45.100;  -35.150;  -19.000;-9.95000
 882.85;  -30.600;  -37.200;  -46.000; 6.60000
 883.41;  -30.800;  -43.450; -104.000;12.65000
 883.97;    0.500;    0.500;    4.000; 0.00000
 884.54;  -43.750;  -29.500;  -17.000;-14.25000
 885.10;  -39.100;  -29.250;  -40.000;-9.85000
 885.66;  -23.900;  -22.950;  -93.000;-0.95000
 886.23;  -46.150;  -28.700;  -20.000;-17.45000
 886.79;  -40.950;  -34.250;   24.000;-6.70000
 887.36;  -22.550;  -32.550;  -63.000;10.00000
 887.92;  -31.650;  -38.900;   42.000; 7.25000
 888.48;  -42.050;  -32.600;  -21.000;-9.45000
 889.05;  -50.450;  -48.600;  -16.000;-1.85000
 889.61;  -33.700;  -19.900;  -12.000;-13.80000
 890.17;  -47.200;  -36.250;  -16.000;-10.95000
 890.74;  -28.900;  -27.650;  -27.000;-1.25000
 891.30;  -31.350;  -43.750;  -23.000;12.40000
 891.86;  -30.000;  -40.600;  -62.000;10.60000
 892.43;  -42.150;  -45.350;  -38.000; 3.20000
 892.99;  -24.250;  -38.850; -108.000;14.60000
 893.55;  -59.250;  -40.300;  -56.000;-18.95000
 894.11;  -49.800;  -26.900;  -32.000;-22.90000
 894.68;  -29.750;  -38.500; -121.000; 8.75000
 895.24;  -42.400;  -28.350;  -11.000;-14.05000
 895.80;  -40.100;  -49.250;  -80.000; 9.15000
 896.37;  -27.450;  -46.450;  -46.000;19.00000
 896.93;  -34.600;  -32.000;  -86.000;-2.60000
 897.49;  -34.550;  -37.000;  -57.000; 2.45000
 898.05;  -41.650;  -38.550;  -40.000;-3.10000
 898.62;  -29.850;  -29.400;  -40.000;-0.45000
 899.18;  -55.200;  -37.200;  -77.000;-18.00000
 899.74;   -8.600;  -34.300;   -7.000;25.70000
 900.31;  -43.650;  -39.100;  -59.000;-4.55000
 900.87;  -39.850;  -41.750;  -56.000; 1.90000
 901.43;  -44.350;  -39.850;    2.000;-4.50000
 901.99;  -38.300;  -45.700;  -55.000; 7.40000
 902.56;  -34.100;  -33.950;  -48.000;-0.15000
 903.12;  -18.700;  -26.050;  -46.000; 7.35000
 903.68;  -37.200;  -37.350;  -22.000; 0.15000
 904.24;  -35.950;  -18.650;  -23.000;-17.30000
 904.80;  -32.200;  -31.900;  -52.000;-0.30000
 905.37;  -35.650;  -23.800;  -30.000;-11.85000
 905.93;  -37.500;  -31.600;  -91.000;-5.90000
 906.49;  -29.400;  -42.750;  -47.000;13.35000
 907.05;  -38.450;  -39.450;   40.000; 1.00000
 907.61;  -33.700;  -40.350;  -42.000; 6.65000
 908.18;  -14.450;  -31.450;  -57.000;17.00000
 908.74;  -32.550;  -37.550;   -6.000; 5.00000
 909.30;  -29.150;  -44.150;  -40.000;15.00000
 909.86;   11.900;  -42.050;  -48.000;53.95000
 910.42;  353.050;  -36.000;  -35.000;389.04999
 910.99;  803.000;  -18.900;  -23.000;821.90000
 911.55;  981.400;  -35.600;  -41.000;1017.00002
 912.11; 1026.500;  -32.150;   18.000;1058.65000
 912.67; 1010.050;  -40.900;  -46.000;1050.94999
 913.23;  998.400;  -45.350;   44.000;1043.75002
 913.79;  960.000;  -49.950;  -12.000;1009.95000
 914.36;  908.900;  -40.800;   -1.000;949.70002
 914.92;  572.300;  -24.300;  -97.000;596.59999
 915.48;  158.200;  -31.900;  -73.000;190.10000
 916.04;   20.150;  -30.950;    0.000;51.10000
 916.60;  -14.900;  -33.300;  -46.000;18.40000
 917.16;  -24.250;  -45.150;  -43.000;20.90000
 917.72;  -20.900;  -33.950;  -49.000;13.05000
 918.28;  -40.800;  -42.550;  -41.000; 1.75000
 918.85;   -9.150;  -31.550;  -34.000;22.40000
 919.41;  -25.050;  -39.450;  -55.000;14.40000
 919.97;  -26.950;  -26.150;  -56.000;-0.80000
 920.53;   27.000;  -47.600;  -71.000;74.60000
 921.09;  144.050;  -30.000;  -11.000;174.05000
 921.65;  170.400;  -41.500;  -59.000;211.89999
 922.21;  159.400;  -34.500;  -56.000;193.89999
 922.77;  170.650;  -46.150;  -92.000;216.80000
 923.33;  169.500;  -51.350;  -86.000;220.85000
 923.89;  154.850;  -34.350;  -12.000;189.20000
 924.45;  149.700;  -36.650;  -12.000;186.35000
 925.01;   78.000;  -33.400;  -64.000;111.40000
 925.58;    3.550;  -34.350;  -80.000;37.90000
 926.14;  -22.150;  -35.400;  -63.000;13.25000
 926.70;  -34.300;  -48.300;    2.000;14.00000
 927.26;  -19.450;  -31.050;  -28.000;11.60000
 927.82;  -32.350;  -33.950;  -36.000; 1.60000
 928.38;  -43.800;  -39.050;  -56.000;-4.75000
 928.94;  -30.950;  -32.900;  -70.000; 1.95000
 929.50;  -39.300;  -40.750;  -47.000; 1.45000
 930.06;  -32.800;  -37.300;  -12.000; 4.50000
 930.62;  -37.550;  -47.450;  -58.000; 9.90000
 931.18;  -29.250;  -31.300;  -20.000; 2.05000
 931.74;  -42.200;  -48.400;  -59.000; 6.20000
 932.30;  -35.200;  -23.100;  -68.000;-12.10000
 932.86;  -39.400;  -45.150;  -52.000; 5.75000
 933.42;  -36.150;  -30.850;  -49.000;-5.30000
 933.98;  -18.100;  -26.750;  -22.000; 8.65000
 934.54;  -19.250;  -31.800;  -58.000;12.55000
 935.10;  -30.250;  -47.950;  -30.000;17.70000
 935.66;  -23.550;  -31.950;  -32.000; 8.40000
 936.22;  -35.800;  -39.050;  -13.000; 3.25000
 936.78;  -39.900;  -45.700;  -33.000; 5.80000
 937.34;  -39.050;  -47.650;   29.000; 8.60000
 937.90;  -27.450;  -28.100;  -13.000; 0.65000
 938.46;  -37.900;  -45.450;  -50.000; 7.55000
 939.02;  -30.150;  -38.000;  -35.000; 7.85000
 939.58;  -33.950;  -48.100;  -61.000;14.15000
 940.14;  -39.350;  -45.450;  -34.000; 6.10000
 940.70;  -34.950;  -41.150;  -15.000; 6.20000
 941.25;  -33.350;  -50.250; -119.000;16.90000
 941.81;  -44.900;  -41.300;  -30.000;-3.60000
 942.37;  -35.850;  -24.350;  -53.000;-11.50000
 942.93;  -38.450;  -41.550;  -57.000; 3.10000
 943.49;  -35.300;  -35.250;  -22.000;-0.05000
 944.05;  -49.450;  -52.300;  -66.000; 2.85000
 944.61;  -33.000;  -24.650;  -87.000;-8.35000
 945.17;  -46.100;  -47.350;  -41.000; 1.25000
 945.73;  -29.000;  -43.650;   13.000;14.65000
 946.29;  -37.750;  -38.550;  -59.000; 0.80000
 946.85;  -44.400;  -43.550;  -75.000;-0.85000
 947.40;  -44.250;  -51.800;  -54.000; 7.55000
 947.96;  -31.200;  -32.000;   -3.000; 0.80000
 948.52;  -46.200;  -38.650;  -62.000;-7.55000
 949.08;  -30.300;  -36.750;  -62.000; 6.45000
 949.64;  -34.050;  -31.500;  -54.000;-2.55000
 950.20;  -32.700;  -33.150;  -97.000; 0.45000
 950.76;  -41.250;  -33.650;  -46.000;-7.60000
 951.32;  -39.050;  -28.250;  -17.000;-10.80000
 951.87;  -42.150;  -35.300;  -69.000;-6.85000
 952.43;  -41.200;  -19.000;   -9.000;-22.20000
 952.99;  -42.650;  -36.450;  -25.000;-6.20000
 953.55;  -30.950;  -30.750;  -67.000;-0.20000
 954.11;  -52.000;  -43.650;  -81.000;-8.35000
 954.67;  -31.050;  -37.100;  -23.000; 6.05000
 955.22;  -44.050;  -51.100;  -39.000; 7.05000
 955.78;  -25.550;  -26.750;  -53.000; 1.20000
 956.34;  -52.450;  -44.850;  -46.000;-7.60000
 956.90;  -45.300;  -37.600;  -67.000;-7.70000
 957.46;  -49.750;  -54.000;  -50.000; 4.25000
 958.01;  -29.900;  -27.350;  -44.000;-2.55000
 958.57;  -38.500;  -33.700;  -57.000;-4.80000
 959.13;  -29.450;  -37.700;  -55.000; 8.25000
 959.69;  -43.000;  -47.750;  -68.000; 4.75000
 960.25;  -29.300;  -36.650;  -41.000; 7.35000
 960.80;  -35.150;  -31.400;  -40.000;-3.75000
 961.36;  -33.900;  -27.850;  -45.000;-6.05000
 961.92;  -40.500;  -45.100;  -84.000; 4.60000
 962.48;  -45.350;  -41.900;  -30.000;-3.45000
 963.03;  -32.200;  -33.300;  -45.000; 1.10000
 963.59;   -8.050;  -34.250;  -14.000;26.20000
 964.15;   64.200;  -25.150;  -85.000;89.35000
 964.71;  125.200;  -36.750;  -38.000;161.95000
 965.26;  141.250;  -41.400;   15.000;182.65000
 965.82;  148.950;  -36.150;  -39.000;185.10000
 966.38;  128.050;  -43.050;  -33.000;171.10000
 966.94;  142.550;  -40.750;  -35.000;183.30000
 967.49;  119.750;  -41.350;  -41.000;161.10000
 968.05;  103.100;  -46.000;   23.000;149.10000
 968.61;   56.950;  -38.950;  -68.000;95.90000
 969.17;  -19.400;  -38.700;  -41.000;19.30000
 969.72;  -49.750;  -46.050;  -14.000;-3.70000
 970.28;  -30.100;  -35.000;  -39.000; 4.90000
 970.84;  -37.750;  -45.800;  -35.000; 8.05000
 971.39;  -41.950;  -46.300;  -24.000; 4.35000
 971.95;  -46.550;  -49.800;  -69.000; 3.25000
 972.51;  -32.550;  -42.150;   15.000; 9.60000
 973.06;  -36.050;  -28.900;  -54.000;-7.15000
 973.62;  -27.550;  -35.700;  -56.000; 8.15000
 974.18;  -49.950;  -32.350;  -24.000;-17.60000
 974.73;  -45.350;  -48.800;  -43.000; 3.45000
 975.29;  -31.650;  -30.250;  -17.000;-1.40000
 975.85;  -23.500;  -48.450;  -55.000;24.95000
 976.40;  -46.700;  -39.850;  -38.000;-6.85000
 976.96;  -32.150;  -35.250;  -54.000; 3.10000
 977.52;  -12.350;  -35.150;  -42.000;22.80000
 978.07;  -20.500;  -32.600;  -15.000;12.10000
 978.63;  -18.900;  -34.400;  -54.000;15.50000
 979.19;  -11.450;  -34.250;  -75.000;22.80000
 979.74;  -16.750;  -37.500;  -43.000;20.75000
 980.30;  -17.600;  -45.550;  -29.000;27.95000
 980.85;  -23.150;  -48.100;   -2.000;24.95000
 981.41;  -40.400;  -42.650;  -41.000; 2.25000
 981.97;  -53.200;  -46.850;  -62.000;-6.35000
 982.52;  -35.300;  -43.050;  -78.000; 7.75000
 983.08;  -32.900;  -44.200;  -59.000;11.30000
 983.63;  -41.950;  -41.550;    5.000;-0.40000
 984.19;  -43.900;  -40.900;  -67.000;-3.00000
 984.75;  -39.850;  -34.750;  -23.000;-5.10000
 985.30;  -40.950;  -44.300;  -51.000; 3.35000
 985.86;  -42.050;  -37.100;  -16.000;-4.95000
 986.41;  -28.350;  -41.200;  -36.000;12.85000
 986.97;  -55.150;  -46.400;  -48.000;-8.75000
 987.52;  -52.950;  -47.050; -140.000;-5.90000
 988.08;  -49.400;  -47.400;   -2.000;-2.00000
 988.64;  -52.000;  -55.050;  -36.000; 3.05000
 989.19;  -35.750;  -35.800;  -62.000; 0.05000
 989.75;  -38.900;  -31.300;   28.000;-7.60000
 990.30;  -35.750;  -41.450;   -4.000; 5.70000
 990.86;  -47.500;  -49.250;  -81.000; 1.75000
 991.41;  -38.350;  -34.600;  -60.000;-3.75000
 991.97;  -44.200;  -50.400;   -9.000; 6.20000
 992.52;  -32.950;  -45.150;  -26.000;12.20000
 993.08;  -36.350;  -40.850;  -28.000; 4.50000
 993.63;  -32.300;  -44.950;  -23.000;12.65000
 994.19;  -32.650;  -46.400;  -10.000;13.75000
 994.74;  -41.500;  -39.950;  -29.000;-1.55000
 995.30;  -52.850;  -52.950;  -63.000; 0.10000
 995.85;  -37.100;  -38.000;  -12.000; 0.90000
 996.41;  -35.250;  -47.350;  -36.000;12.10000
 996.96;  -26.100;  -42.350;  -53.000;16.25000
 997.52;  -32.450;  -29.350;  -69.000;-3.10000
 998.07;  -31.800;  -55.000;  -78.000;23.20000
 998.63;  -35.450;  -47.550;  -22.000;12.10000
 999.18;  -36.250;  -35.100;  -34.000;-1.15000
 999.74;  -39.050;  -40.850;  -53.000; 1.80000
1000.29;  -42.200;  -47.300;  -59.000; 5.10000
1000.85;  -46.000;  -34.850;  -57.000;-11.15000
1001.40;  -33.050;  -33.750;  -31.000; 0.70000
1001.96;  -39.450;  -45.500;   -7.000; 6.05000
1002.51;  -40.200;  -31.700;  -61.000;-8.50000
1003.06;  -41.200;  -47.950;  -26.000; 6.75000
1003.62;  -16.700;  -39.300;  -37.000;22.60000
1004.17;  -46.800;  -48.150;  -40.000; 1.35000
1004.73;  -32.500;  -35.500;  -22.000; 3.00000
1005.28;  -38.050;  -31.250;  -21.000;-6.80000
1005.83;  -40.450;  -44.750;    1.000; 4.30000
1006.39;  -45.450;  -51.350;  -41.000; 5.90000
1006.94;  -35.500;  -37.200;  -40.000; 1.70000
1007.50;  -50.200;  -36.400;  -41.000;-13.80000
1008.05;  -49.600;  -40.300;  -79.000;-9.30000
1008.60;  -34.100;  -43.800;  -52.000; 9.70000
1009.16;  -42.800;  -39.000;  -31.000;-3.80000
1009.71;  -29.500;  -38.250;  -64.000; 8.75000
1010.27;  -41.600;  -36.850;  -83.000;-4.75000
1010.82;  -60.900;  -34.900;  -50.000;-26.00000
1011.37;  -34.350;  -32.950;  -46.000;-1.40000
1011.93;  -38.100;  -42.350;  -26.000; 4.25000
1012.48;  -25.800;  -29.350;  -44.000; 3.55000
1013.03;  -41.900;  -33.550;  -74.000;-8.35000
1013.59;  -42.050;  -30.800;  -35.000;-11.25000
1014.14;  -35.800;  -45.700;  -17.000; 9.90000
1014.69;  -34.450;  -28.850;  -57.000;-5.60000
1015.25;  -27.000;  -30.300;  -64.000; 3.30000
1015.80;  -18.900;  -40.600;  -39.000;21.70000
1016.35;  -63.650;  -54.050;  -72.000;-9.60000
1016.91;  -35.950;  -30.750;   -5.000;-5.20000
1017.46;  -41.200;  -42.750;  -25.000; 1.55000
1018.01;  -35.000;  -29.900;  -90.000;-5.10000
1018.57;  -44.900;  -37.750; -106.000;-7.15000
1019.12;  -43.600;  -48.450;  -32.000; 4.85000
1019.67;  -44.400;  -37.450;  -31.000;-6.95000
1020.23;  -32.300;  -26.350;  -79.000;-5.95000
1020.78;  -50.950;  -42.200;  -45.000;-8.75000
1021.33;  -41.450;  -36.500;  -87.000;-4.95000
1021.88;  -39.950;  -41.350;  -18.000; 1.40000
1022.44;  -26.150;  -39.050;  -94.000;12.90000
1022.99;  -61.150;  -44.300; -112.000;-16.85000
1023.54;  -43.600;  -42.000;  -79.000;-1.60000
1024.09;  -20.250;  -32.500;  -80.000;12.25000
1024.65;  -45.750;  -39.750;  -35.000;-6.00000
1025.20;  -42.300;  -52.900;  -45.000;10.60000
1025.75;  -37.100;  -48.350;  -28.000;11.25000
1026.30;  -55.350;  -47.050;  -76.000;-8.30000
1026.86;  -33.300;  -51.500;  -66.000;18.20000
1027.41;  -35.400;  -41.300;  -38.000; 5.90000
1027.96;  -40.650;  -40.500;  -23.000;-0.15000
1028.51;  -40.850;  -45.500;  -68.000; 4.65000
1029.07;  -23.600;  -39.450;  -52.000;15.85000
1029.62;  -29.850;  -43.450;  -95.000;13.60000
1030.17;  -37.900;  -40.750;  -67.000; 2.85000
1030.72;  -34.400;  -38.500;  -22.000; 4.10000
1031.27;  -33.450;  -45.500;  -60.000;12.05000
1031.83;  -38.450;  -45.150;  -52.000; 6.70000
1032.38;  -13.950;  -40.500;  -68.000;26.55000
1032.93;  -30.700;  -39.150;  -64.000; 8.45000
1033.48;  -31.400;  -27.650;  -49.000;-3.75000
1034.03;  -44.700;  -43.500;    8.000;-1.20000
1034.58;  -41.650;  -20.950;  -46.000;-20.70000
1035.14;  -36.650;  -44.300;  -42.000; 7.65000
1035.69;  -44.000;  -46.850;  -32.000; 2.85000
1036.24;  -61.950;  -44.050;  -43.000;-17.90000
1036.79;  -41.550;  -43.550;  -30.000; 2.00000
1037.34;  -34.650;  -40.500; -111.000; 5.85000
1037.89;  -29.500;  -48.850;  -25.000;19.35000
1038.45;  -36.950;  -43.500;  -34.000; 6.55000
1039.00;  -36.250;  -42.500;  -34.000; 6.25000
1039.55;  -46.050;  -49.350;  -19.000; 3.30000
1040.10;  -17.650;  -28.750;  -22.000;11.10000
1040.65;  -57.900;  -35.200;  -19.000;-22.70000
1041.20;  -36.150;  -39.750;  -23.000; 3.60000
1041.75;  -51.850;  -48.350;  -45.000;-3.50000
1042.30;  -30.700;  -54.350;  -26.000;23.65000
1042.85;  -40.550;  -45.250;  -31.000; 4.70000
1043.41;  -35.950;  -31.050;  -70.000;-4.90000
1043.96;  -49.700;  -51.500;  -14.000; 1.80000
1044.51;  -43.400;  -43.500;  -67.000; 0.10000
1045.06;  -46.000;  -50.350;  -53.000; 4.35000
1045.61;  -37.600;  -33.600;  -44.000;-4.00000
1046.16;  -27.200;  -41.900;  -57.000;14.70000
1046.71;  -46.200;  -48.400;  -83.000; 2.20000
1047.26;  -47.800;  -40.950; -102.000;-6.85000
1047.81;  -44.950;  -44.150; -101.000;-0.80000
1048.36;  -42.650;  -56.900;  -92.000;14.25000
1048.91;   58.550;   50.450;  -61.000; 8.10000
1049.46;  -25.900;  -33.050;  -58.000; 7.15000
1050.01;  -38.400;  -48.800;  -15.000;10.40000
1050.56;  -55.850;  -48.550;  -89.000;-7.30000
1051.11;  -35.050;  -35.600;  -12.000; 0.55000
1051.66;  -50.300;  -45.700;  -19.000;-4.60000
1052.21;  -48.250;  -43.650;  -33.000;-4.60000
1052.76;  -44.300;  -54.600;  -36.000;10.30000
1053.31;  -35.750;  -41.600;  -73.000; 5.85000
1053.86;  -36.250;  -51.100;  -78.000;14.85000
1054.41;  -39.750;  -43.550;  -44.000; 3.80000
1054.96;  -52.050;  -45.700; -117.000;-6.35000
1055.51;  -16.150;  -19.500;  -98.000; 3.35000
1056.06;  -47.150;  -46.850;  -69.000;-0.30000
1056.61;  -40.600;  -21.550;  -25.000;-19.05000
1057.16;  -49.900;  -44.800;  -50.000;-5.10000
1057.71;  -31.750;  -41.900;  -59.000;10.15000
1058.26;  -49.150;  -52.700;  -47.000; 3.55000
1058.81;  -29.550;  -35.850;  -83.000; 6.30000
1059.36;  -43.150;  -56.250;  -79.000;13.10000
1059.91;  -24.300;  -31.850;  -69.000; 7.55000
1060.46;  -42.800;  -47.600;   30.000; 4.80000
1061.01;  -39.700;  -42.900; -110.000; 3.20000
1061.56;  -51.600;  -58.300;  -46.000; 6.70000
1062.11;  -31.000;  -30.000;  -66.000;-1.00000
1062.66;  -59.050;  -40.000;  -21.000;-19.05000
1063.21;  -46.700;  -56.250;  -15.000; 9.55000
1063.76;  -47.050;  -46.900;  -61.000;-0.15000
1064.31;  -38.250;  -31.500;  -45.000;-6.75000
1064.86;  -40.900;  -58.100;  -17.000;17.20000
1065.40;  -25.000;  -21.900;  -31.000;-3.10000
1065.95;  -26.450;  -34.450;    2.000; 8.00000
1066.50;  -40.600;  -41.650;  -29.000; 1.05000
1067.05;  -44.950;  -45.800;  -53.000; 0.85000
1067.60;  -31.050;  -38.000;  -53.000; 6.95000
1068.15;  -46.950;  -54.600;  -12.000; 7.65000
1068.70;  -40.300;  -50.450;  -41.000;10.15000
1069.25;  -39.100;  -46.500;  -85.000; 7.40000
1069.79;  -36.250;  -47.050; -103.000;10.80000
1070.34;  -44.500;  -52.750;  -47.000; 8.25000
1070.89;  -26.900;  -44.650;  -32.000;17.75000
1071.44;  -34.750;  -40.750;  -85.000; 6.00000
1071.99;  -14.000;  -19.350;  -83.000; 5.35000
1072.54;  -52.100;  -48.250;  -56.000;-3.85000
1073.09;  -45.400;  -49.550;  -64.000; 4.15000
1073.63;  -42.150;  -49.450;  -46.000; 7.30000
1074.18;  -45.350;  -27.800;  -25.000;-17.55000
1074.73;  -50.100;  -51.000;   -6.000; 0.90000
1075.28;  -21.950;  -28.450;    4.000; 6.50000
1075.83;  -41.300;  -46.600;  -22.000; 5.30000
1076.38;  -36.550;  -52.400;  -25.000;15.85000
1076.92;  -53.550;  -48.050;  -99.000;-5.50000
1077.47;  -41.400;  -33.200;  -39.000;-8.20000
1078.02;  -41.750;  -35.250;  -74.000;-6.50000
1078.57;  -42.650;  -38.850;  -33.000;-3.80000
1079.11;  -57.300;  -53.000;  -35.000;-4.30000
1079.66;  -42.550;  -53.450;  -82.000;10.90000
1080.21;  -53.800;  -44.250;  -68.000;-9.55000
1080.76;  -43.600;  -36.650;  -49.000;-6.95000
1081.31;  -41.700;  -44.600;    3.000; 2.90000
1081.85;  -29.750;  -46.450;  -46.000;16.70000
1082.40;  -38.450;  -53.600;  -55.000;15.15000
1082.95;  -32.950;  -44.350; -140.000;11.40000
1083.50;  -35.450;  -52.800;   -7.000;17.35000
1084.04;  -42.950;  -41.900;  -37.000;-1.05000
1084.59;  -51.050;  -25.500;  -73.000;-25.55000
1085.14;  -47.500;  -48.600;  -56.000; 1.10000
1085.69;  -47.300;  -54.500;  -84.000; 7.20000
1086.23;  -31.200;  -31.450;  -48.000; 0.25000
1086.78;  -42.150;  -54.550;  -63.000;12.40000
1087.33;  -36.050;  -32.700; -107.000;-3.35000
1087.87;  -46.100;  -40.500;  -34.000;-5.60000
1088.42;  -22.200;  -31.000;  -58.000; 8.80000
1088.97;  -56.850;  -55.400;  -42.000;-1.45000
1089.52;  -27.450;  -33.800;  -72.000; 6.35000
1090.06;  -49.550;  -45.250;  -46.000;-4.30000
1090.61;  -43.650;  -34.700;  -39.000;-8.95000
1091.16;  -44.550;  -48.600;  -93.000; 4.05000
1091.70;  -49.650;  -54.200;  -69.000; 4.55000
1092.25;  -51.700;  -51.400;  -80.000;-0.30000
1092.80;  -35.150;  -46.950;  -63.000;11.80000
1093.34;  -39.000;  -53.250;  -62.000;14.25000
1093.89;  -39.800;  -43.000;  -47.000; 3.20000
1094.44;  -41.200;  -41.750;  -87.000; 0.55000
1094.98;  -25.900;  -34.650;  -96.000; 8.75000
1095.53;  -45.350;  -52.150;  -76.000; 6.80000
1096.07;  -38.250;  -50.400;  -63.000;12.15000
1096.62;  -42.350;  -58.250;  -16.000;15.90000
1097.17;  -32.900;  -56.700;  -54.000;23.80000
1097.71;  -39.800;  -52.300;  -68.000;12.50000
1098.26;  -45.600;  -45.850;  -72.000; 0.25000
1098.81;  -42.700;  -36.150;  -50.000;-6.55000
1099.35;  -40.500;  -51.100;    6.000;10.60000
1099.90;  -55.150;  -49.450;  -35.000;-5.70000
1100.44;  -53.600;  -51.250;  -16.000;-2.35000

